fist,1,0,51,65,61,61,60,67,53,48,52,63,56,52,52,53,43,42,47,59,55,52,52,59,49,47,48,63,54,56,56,61,51,50,47,47,43,39,42,41,51,54,50,49,51,47,39,43,57,158,238,257,275,291,296,240,237,223,210,157,156,146,144,136,123,115,96,86,73,71,72,71,68,69,76,78,76,75,81,69,64,64,63,51,51,54,60,67,69,72,76,82,102,100,102,99,98,82,96,95,98,104,100,93,90,90,81,71,70,74,89,134,179,216,292,329,334,329,314,301,290,309,297,297,263,244,189,183,169,127,82,82,94,93,96,93,87,64,71,,,,,,,,,,,,,,,,,,,,,,,,,,,,,,,,,,,,,,,,,,,,,,,,,,,,,,,,,,,,,,,,,,,,,,,,,,,,,,,,,,,,,,,,,,,,,,,,,,,,,,,,,
fist,1,1,54,152,172,183,190,191,128,102,81,61,65,60,57,56,57,55,52,50,53,58,57,60,60,62,56,53,122,365,419,474,488,478,335,268,152,105,92,85,71,103,107,158,173,187,194,194,168,149,132,114,110,236,273,291,294,294,207,154,116,92,85,61,61,63,74,73,74,73,72,62,56,53,55,64,61,60,70,72,61,58,66,56,57,58,58,60,59,64,66,73,129,140,151,158,158,134,134,127,121,120,107,101,102,115,124,118,114,115,102,89,93,96,105,119,126,430,514,547,570,590,472,417,402,365,339,267,204,127,123,106,97,91,81,76,68,74,91,93,100,159,240,295,329,333,334,302,252,217,223,188,155,160,169,151,147,143,189,190,191,192,191,129,93,91,88,,,,,,,,,,,,,,,,,,,,,,,,,,,,,,,,,,,,,,,,,,,,,,,,,,,,,,,,,,,,,,,,,,,,,,,,,,,,,
fist,1,2,56,57,57,61,61,61,60,56,53,54,55,70,66,62,63,66,66,63,66,62,62,55,56,63,64,72,66,67,63,68,57,58,52,57,67,70,72,79,80,89,96,101,149,172,168,178,180,148,121,117,96,90,94,91,93,95,99,98,117,114,115,124,120,102,106,120,107,105,110,111,99,95,104,101,101,97,114,111,117,113,115,103,113,118,115,116,123,120,125,135,146,136,127,113,129,118,123,123,125,106,106,120,118,111,111,103,107,134,166,224,235,244,237,221,156,148,117,121,127,133,146,154,145,137,129,161,159,153,150,149,131,200,214,215,217,192,109,95,89,83,98,96,79,76,81,75,76,76,79,,,,,,,,,,,,,,,,,,,,,,,,,,,,,,,,,,,,,,,,,,,,,,,,,,,,,,,,,,,,,,,,,,,,,,,,,,,,,,,,,,,,,,,,,,,,,
fist,1,3,73,74,68,63,61,52,56,72,64,70,69,66,60,60,63,63,88,96,102,109,119,104,97,96,92,81,77,75,83,85,83,87,84,79,68,73,70,71,61,61,67,70,77,80,84,77,82,79,77,72,72,64,70,70,74,75,92,81,84,86,87,97,123,120,118,122,124,123,123,124,119,110,90,95,95,115,107,113,128,138,128,132,131,116,125,143,140,162,188,186,176,180,160,142,154,165,177,199,201,186,173,168,147,141,187,191,179,169,166,128,121,122,120,123,143,141,140,147,150,110,109,110,103,88,104,107,125,134,182,168,168,186,,,,,,,,,,,,,,,,,,,,,,,,,,,,,,,,,,,,,,,,,,,,,,,,,,,,,,,,,,,,,,,,,,,,,,,,,,,,,,,,,,,,,,,,,,,,,,,,,,,,,,,,,,,,,,
fist,1,4,61,68,50,49,51,54,47,49,51,50,53,52,52,61,59,58,56,57,50,58,62,71,73,83,76,77,75,88,258,291,293,297,295,171,137,157,152,154,149,125,93,99,94,92,88,96,99,105,110,111,102,93,94,86,93,94,100,95,103,109,109,106,106,104,102,109,215,308,332,332,333,279,177,125,133,124,121,131,144,134,144,137,144,144,151,148,148,124,118,102,103,118,122,110,118,135,124,118,133,131,120,139,139,128,142,150,138,157,157,145,124,125,107,100,95,107,109,105,103,104,102,111,117,119,122,115,96,76,92,99,90,92,,,,,,,,,,,,,,,,,,,,,,,,,,,,,,,,,,,,,,,,,,,,,,,,,,,,,,,,,,,,,,,,,,,,,,,,,,,,,,,,,,,,,,,,,,,,,,,,,,,,,,,,,,,,,,
fist,1,5,64,64,71,72,67,68,80,72,68,68,74,69,69,68,79,73,71,73,82,77,75,81,84,83,76,78,65,65,60,111,181,211,230,259,289,570,724,748,742,728,525,283,190,183,172,162,109,110,108,118,101,93,96,126,128,189,247,313,301,297,272,234,145,146,144,141,124,193,214,228,223,221,153,134,117,126,126,137,127,441,573,662,680,696,553,418,255,208,148,145,132,148,140,155,152,146,131,128,100,108,120,126,128,135,131,203,228,223,219,232,199,210,222,222,212,187,135,113,120,165,156,159,172,168,125,171,175,160,164,224,200,225,240,243,272,307,293,290,289,206,148,132,117,103,111,93,94,88,100,94,91,77,98,93,96,96,148,132,99,,,,,,,,,,,,,,,,,,,,,,,,,,,,,,,,,,,,,,,,,,,,,,,,,,,,,,,,,,,,,,,,,,,,,,,,,,,,,,,,,,,
fist,1,6,50,63,61,60,62,69,63,56,66,74,85,84,93,110,109,95,93,91,72,73,79,81,91,91,86,94,116,117,119,120,114,96,109,116,116,117,115,95,80,83,93,94,92,103,111,101,101,121,122,120,124,119,101,100,99,97,107,108,116,113,110,104,101,81,77,82,125,139,140,142,141,161,175,173,172,185,137,104,110,150,147,150,160,160,126,105,113,118,117,116,130,196,188,192,206,209,158,156,156,139,137,122,121,132,149,162,167,165,154,159,158,160,165,170,160,146,145,144,149,133,117,109,115,96,92,137,162,164,163,165,137,115,111,105,105,116,,,,,,,,,,,,,,,,,,,,,,,,,,,,,,,,,,,,,,,,,,,,,,,,,,,,,,,,,,,,,,,,,,,,,,,,,,,,,,,,,,,,,,,,,,,,,,,,,,,,,,,,,,
fist,1,7,67,67,61,52,53,55,82,80,83,83,81,62,70,61,61,65,64,52,51,52,50,63,67,79,79,81,76,77,69,67,68,62,64,78,79,78,78,74,59,63,64,62,63,63,69,68,69,76,77,79,82,96,99,100,95,90,77,73,71,65,66,67,62,71,77,80,85,88,84,93,91,82,78,80,69,73,76,89,93,90,85,88,80,72,74,75,85,85,89,103,102,98,109,104,92,102,97,100,100,101,97,107,87,93,88,88,84,92,87,92,92,87,83,83,82,78,74,78,86,85,80,81,85,82,84,83,90,79,82,88,101,99,98,91,81,75,71,69,101,105,102,101,105,86,79,73,71,65,45,44,42,56,78,97,98,99,88,83,,,,,,,,,,,,,,,,,,,,,,,,,,,,,,,,,,,,,,,,,,,,,,,,,,,,,,,,,,,,,,,,,,,,,,,,,,,,,,,,,,,,
fist,1,8,57,70,60,58,60,71,80,88,91,94,96,89,92,93,91,90,86,74,75,76,68,66,69,85,84,91,93,95,86,93,87,96,98,94,90,88,79,83,85,83,92,100,108,105,107,103,101,86,95,99,121,117,119,115,116,95,96,110,111,107,105,111,98,96,103,139,151,186,205,218,218,218,189,170,160,162,164,162,168,169,143,121,125,122,102,92,87,82,69,66,106,111,113,161,164,150,157,153,113,132,126,119,122,113,86,90,100,106,105,108,102,84,81,76,79,74,82,71,80,80,,,,,,,,,,,,,,,,,,,,,,,,,,,,,,,,,,,,,,,,,,,,,,,,,,,,,,,,,,,,,,,,,,,,,,,,,,,,,,,,,,,,,,,,,,,,,,,,,,,,,,,,,,,,,,,,,,,,,,,,,,
fist,1,9,50,55,56,68,58,59,58,66,56,51,50,57,47,44,45,52,52,55,61,78,74,69,67,61,54,67,70,71,74,84,80,82,85,94,81,78,74,78,75,76,74,77,79,71,85,88,86,80,79,58,55,57,53,68,77,84,106,111,115,110,110,93,101,105,109,106,111,112,101,102,101,102,104,106,110,114,108,93,86,81,87,86,89,95,88,88,91,89,101,124,118,114,112,109,89,116,128,132,139,141,125,119,116,100,94,92,89,86,89,91,88,87,89,81,102,114,116,120,120,96,83,82,81,79,77,73,88,92,103,104,104,86,86,81,81,81,103,129,141,151,152,135,102,82,70,61,62,61,65,55,55,56,75,,,,,,,,,,,,,,,,,,,,,,,,,,,,,,,,,,,,,,,,,,,,,,,,,,,,,,,,,,,,,,,,,,,,,,,,,,,,,,,,,,,,,,,,,
fingersSpread,1,0,68,69,74,62,65,61,59,55,57,52,56,56,55,54,60,64,64,65,69,59,52,53,76,81,82,79,84,80,85,90,95,100,91,86,93,93,91,91,101,104,111,126,124,116,119,125,108,125,134,135,134,137,138,137,136,126,142,148,162,174,174,165,147,118,81,98,96,95,95,101,82,61,56,61,55,50,52,58,58,54,54,52,45,47,43,44,46,48,49,50,51,53,55,54,55,54,54,63,55,54,58,,,,,,,,,,,,,,,,,,,,,,,,,,,,,,,,,,,,,,,,,,,,,,,,,,,,,,,,,,,,,,,,,,,,,,,,,,,,,,,,,,,,,,,,,,,,,,,,,,,,,,,,,,,,,,,,,,,,,,,,,,,,,,,,,,,,,,,,,,,,,
fingersSpread,1,1,70,71,76,74,69,63,63,60,66,67,72,79,84,86,93,109,126,127,167,170,162,158,173,138,143,153,149,143,150,140,151,156,151,149,150,139,141,133,126,125,128,144,148,151,147,143,107,100,87,83,56,58,53,51,50,64,58,61,65,67,57,56,48,44,43,39,38,40,40,39,44,47,46,55,54,48,47,56,50,50,50,53,51,51,59,61,57,52,58,49,47,50,55,46,46,56,53,45,45,63,58,57,59,68,53,53,61,64,54,55,57,50,45,53,54,48,49,57,50,61,65,70,64,67,65,69,61,61,66,58,58,62,62,54,56,57,62,62,63,60,52,42,53,57,56,55,65,61,62,65,68,58,56,,,,,,,,,,,,,,,,,,,,,,,,,,,,,,,,,,,,,,,,,,,,,,,,,,,,,,,,,,,,,,,,,,,,,,,,,,,,,,,,,,,,,,,,,
fingersSpread,1,2,62,66,66,65,58,50,51,51,52,55,61,61,62,68,81,76,74,84,80,65,64,69,59,56,69,67,60,63,75,71,72,81,80,69,68,76,76,79,83,88,85,81,86,93,90,102,112,123,117,125,129,136,122,124,123,110,100,113,118,118,132,132,128,126,138,136,144,149,144,132,119,107,101,101,101,101,106,99,99,98,99,89,87,84,76,70,67,59,59,55,51,48,61,61,61,68,72,69,64,63,67,63,57,59,64,55,52,52,52,45,40,55,56,,,,,,,,,,,,,,,,,,,,,,,,,,,,,,,,,,,,,,,,,,,,,,,,,,,,,,,,,,,,,,,,,,,,,,,,,,,,,,,,,,,,,,,,,,,,,,,,,,,,,,,,,,,,,,,,,,,,,,,,,,,,,,,,,
fingersSpread,1,3,52,61,62,64,77,77,74,75,73,72,64,60,66,80,72,81,83,82,71,66,67,74,69,72,72,65,71,74,73,79,76,58,53,57,48,48,50,59,55,54,60,68,67,80,90,95,107,115,115,114,119,108,106,106,102,97,98,103,94,93,88,92,82,95,102,110,132,136,146,145,141,122,117,106,105,106,97,97,92,98,120,134,131,133,134,111,104,102,94,87,82,65,71,70,59,57,57,44,47,48,49,47,50,38,39,42,42,42,57,57,53,54,59,49,50,56,60,54,57,60,56,56,59,52,50,,,,,,,,,,,,,,,,,,,,,,,,,,,,,,,,,,,,,,,,,,,,,,,,,,,,,,,,,,,,,,,,,,,,,,,,,,,,,,,,,,,,,,,,,,,,,,,,,,,,,,,,,,,,,,,,,,,,,
fingersSpread,1,4,52,59,55,50,48,50,51,51,51,58,63,60,59,72,72,66,74,75,73,67,95,96,96,89,92,64,49,48,54,56,61,73,90,92,100,101,102,94,96,89,94,96,104,107,115,119,120,125,131,128,122,117,109,102,100,117,120,123,118,124,120,144,152,163,171,166,141,143,135,122,136,139,133,133,142,129,136,132,130,128,127,113,101,92,75,69,67,70,74,68,61,62,53,47,60,61,60,58,55,38,33,35,40,50,51,48,46,43,30,29,33,53,54,55,56,62,58,57,56,56,49,39,41,43,40,40,,,,,,,,,,,,,,,,,,,,,,,,,,,,,,,,,,,,,,,,,,,,,,,,,,,,,,,,,,,,,,,,,,,,,,,,,,,,,,,,,,,,,,,,,,,,,,,,,,,,,,,,,,,,,,,,,,,,
fingersSpread,1,5,50,47,45,49,55,52,56,56,58,57,57,56,59,54,60,60,57,61,66,61,63,67,62,65,64,71,77,96,92,101,100,94,83,95,93,93,115,151,182,199,219,222,203,181,164,147,128,125,113,118,107,121,118,132,133,141,132,130,125,123,136,142,147,138,130,102,88,77,73,79,78,74,79,73,66,72,71,60,74,70,63,65,68,56,57,61,53,57,57,55,61,62,59,58,62,54,55,49,56,58,63,63,65,57,49,39,46,43,47,47,54,45,45,,,,,,,,,,,,,,,,,,,,,,,,,,,,,,,,,,,,,,,,,,,,,,,,,,,,,,,,,,,,,,,,,,,,,,,,,,,,,,,,,,,,,,,,,,,,,,,,,,,,,,,,,,,,,,,,,,,,,,,,,,,,,,,,,
fingersSpread,1,6,41,41,33,42,45,48,48,61,54,54,54,67,57,54,52,55,41,42,46,55,49,46,46,46,46,51,53,55,64,60,55,58,68,67,68,78,78,75,70,66,55,56,67,80,86,90,92,85,72,77,74,74,71,72,68,84,89,88,89,87,79,91,104,110,107,105,88,84,75,86,90,92,81,83,83,75,77,86,82,81,100,106,112,114,119,114,108,97,101,87,89,96,102,102,106,96,83,71,56,42,51,58,64,67,69,62,56,47,46,45,48,50,51,52,58,53,51,54,51,45,46,52,47,48,47,51,43,49,50,59,58,55,51,52,49,49,49,,,,,,,,,,,,,,,,,,,,,,,,,,,,,,,,,,,,,,,,,,,,,,,,,,,,,,,,,,,,,,,,,,,,,,,,,,,,,,,,,,,,,,,,,,,,,,,,,,,,,,,,,
fingersSpread,1,7,51,51,49,48,51,49,43,43,44,50,51,53,57,64,55,51,57,61,54,54,63,58,49,56,64,56,53,57,53,45,42,44,48,48,63,70,68,66,74,72,69,72,75,71,61,66,63,60,56,56,59,67,63,66,78,84,92,96,96,87,88,97,106,109,109,116,120,136,134,136,126,114,85,91,88,94,98,97,110,134,133,125,127,111,89,83,87,87,96,91,87,79,73,62,51,62,65,63,59,63,49,46,45,46,54,60,58,62,68,51,62,65,57,51,52,46,47,51,52,52,59,57,52,56,62,57,49,50,54,50,47,46,48,41,38,58,57,54,51,55,41,40,43,,,,,,,,,,,,,,,,,,,,,,,,,,,,,,,,,,,,,,,,,,,,,,,,,,,,,,,,,,,,,,,,,,,,,,,,,,,,,,,,,,,,,,,,,,,,,,,,,,,
fingersSpread,1,8,41,43,50,44,40,44,42,47,46,46,43,42,38,41,44,50,57,52,50,61,59,54,59,66,59,56,65,61,54,57,64,53,52,52,49,46,46,48,54,53,62,62,61,57,61,51,65,70,74,81,81,72,70,68,57,58,59,74,75,77,84,86,85,89,99,103,114,109,106,99,88,82,87,92,94,102,102,103,110,107,110,108,108,106,106,96,98,97,88,99,104,101,94,105,93,95,89,99,91,87,79,95,107,105,109,108,99,82,85,83,84,79,64,56,57,59,56,57,53,73,77,75,78,87,71,60,61,69,64,59,63,69,54,47,53,48,39,38,47,49,47,48,59,68,73,75,77,70,57,52,,,,,,,,,,,,,,,,,,,,,,,,,,,,,,,,,,,,,,,,,,,,,,,,,,,,,,,,,,,,,,,,,,,,,,,,,,,,,,,,,,,,,,,,,,,,
fingersSpread,1,9,47,58,58,46,46,56,45,48,47,58,55,59,56,59,51,46,51,55,54,53,63,60,60,57,66,59,58,59,73,73,74,74,73,60,74,73,74,76,85,69,70,71,72,71,76,86,86,90,85,84,79,85,85,87,86,82,104,100,106,110,114,96,100,89,98,98,94,87,94,93,90,90,97,91,76,92,94,88,90,84,69,73,125,137,142,144,144,105,96,90,82,80,73,63,76,77,71,72,78,65,59,60,62,58,57,57,55,52,62,63,65,64,66,59,57,56,56,56,48,43,42,39,38,42,45,43,47,56,59,57,59,59,56,51,50,52,55,48,45,60,59,,,,,,,,,,,,,,,,,,,,,,,,,,,,,,,,,,,,,,,,,,,,,,,,,,,,,,,,,,,,,,,,,,,,,,,,,,,,,,,,,,,,,,,,,,,,,,,,,,,,,
waveOut,1,0,60,58,95,100,99,96,96,59,55,57,54,57,57,74,82,84,86,90,74,70,67,61,59,70,65,78,85,101,113,122,144,153,167,191,205,223,238,270,282,322,361,381,370,373,362,328,369,359,363,352,351,292,283,309,292,280,272,303,254,273,280,279,257,247,238,216,204,209,228,249,267,271,255,235,216,198,189,190,198,170,156,147,136,132,123,115,242,258,254,266,273,190,175,173,164,161,134,120,105,96,95,93,98,101,99,90,89,83,84,77,101,99,103,115,138,116,117,125,125,98,105,107,95,74,76,64,,,,,,,,,,,,,,,,,,,,,,,,,,,,,,,,,,,,,,,,,,,,,,,,,,,,,,,,,,,,,,,,,,,,,,,,,,,,,,,,,,,,,,,,,,,,,,,,,,,,,,,,,,,,,,,,,,,,
waveOut,1,1,101,107,107,125,119,101,93,101,94,108,113,122,153,150,141,136,130,91,88,110,135,162,185,230,240,249,258,270,263,255,248,265,260,245,255,266,277,280,284,274,268,246,263,275,278,287,291,276,271,282,295,300,328,315,343,320,315,283,296,295,325,325,312,296,260,241,232,234,251,243,228,201,224,222,219,216,221,186,160,148,136,148,148,155,155,145,116,118,97,80,66,67,56,58,61,60,48,51,51,47,62,66,62,59,60,41,32,41,42,40,55,60,55,55,55,44,45,56,60,,,,,,,,,,,,,,,,,,,,,,,,,,,,,,,,,,,,,,,,,,,,,,,,,,,,,,,,,,,,,,,,,,,,,,,,,,,,,,,,,,,,,,,,,,,,,,,,,,,,,,,,,,,,,,,,,,,,,,,,,,,
waveOut,1,2,76,83,83,83,86,63,51,51,57,60,59,65,73,74,69,68,82,84,88,91,92,95,93,88,85,102,93,129,138,146,143,152,170,198,201,215,227,240,259,268,276,271,241,206,219,232,237,261,293,309,311,322,317,313,295,269,260,251,242,255,264,264,272,271,241,242,254,250,226,226,212,176,156,155,147,141,129,118,105,110,169,174,174,206,203,153,148,142,89,84,86,78,92,91,90,88,88,72,51,48,38,50,57,55,55,68,58,51,52,61,51,54,54,51,52,48,44,48,58,49,55,61,63,54,,,,,,,,,,,,,,,,,,,,,,,,,,,,,,,,,,,,,,,,,,,,,,,,,,,,,,,,,,,,,,,,,,,,,,,,,,,,,,,,,,,,,,,,,,,,,,,,,,,,,,,,,,,,,,,,,,,,,,
waveOut,1,3,66,67,67,76,62,61,65,69,67,66,75,78,77,77,84,81,73,72,75,69,67,67,70,65,82,94,111,123,124,117,115,101,98,111,110,125,206,209,219,236,235,207,216,231,234,233,218,225,212,199,209,220,213,203,201,204,186,217,243,307,306,311,286,311,259,248,283,301,256,259,271,219,200,219,228,231,240,241,214,196,184,168,141,136,120,96,107,112,113,105,105,106,101,106,101,134,134,135,129,203,247,402,475,504,587,577,482,433,403,222,182,172,95,84,79,71,92,96,133,141,143,139,,,,,,,,,,,,,,,,,,,,,,,,,,,,,,,,,,,,,,,,,,,,,,,,,,,,,,,,,,,,,,,,,,,,,,,,,,,,,,,,,,,,,,,,,,,,,,,,,,,,,,,,,,,,,,,,,,,,,,,,
waveOut,1,4,60,63,63,61,66,64,70,77,91,86,88,86,75,67,81,86,89,100,94,85,83,75,65,73,76,83,85,85,94,93,82,87,115,115,132,150,171,178,180,180,167,143,110,104,90,91,96,98,97,90,100,100,110,119,131,142,152,145,149,143,135,133,136,142,142,155,161,163,149,175,193,207,211,225,220,213,202,215,227,216,221,220,228,214,225,209,222,230,239,235,239,224,194,198,188,169,168,172,136,130,131,110,87,93,93,93,113,123,188,217,235,245,241,191,151,123,89,91,120,185,246,295,388,413,404,367,332,217,151,105,113,112,102,96,104,99,78,77,68,58,53,55,69,74,71,67,77,69,61,63,76,72,,,,,,,,,,,,,,,,,,,,,,,,,,,,,,,,,,,,,,,,,,,,,,,,,,,,,,,,,,,,,,,,,,,,,,,,,,,,,,,,,,,,,,,,,,
waveOut,1,5,53,52,52,56,59,59,61,63,58,60,63,69,69,67,85,83,92,100,104,98,104,113,118,149,158,156,156,153,143,136,142,148,164,159,156,158,163,203,217,224,229,236,265,302,323,341,334,294,292,368,354,355,344,304,165,169,175,187,187,199,188,177,165,176,163,166,171,165,144,137,141,134,142,156,184,174,177,180,167,138,127,114,98,118,271,293,298,312,331,225,203,193,170,255,268,550,806,855,906,945,896,744,719,631,651,540,451,406,408,264,261,243,236,180,152,115,104,80,60,55,57,55,53,51,51,47,86,87,,,,,,,,,,,,,,,,,,,,,,,,,,,,,,,,,,,,,,,,,,,,,,,,,,,,,,,,,,,,,,,,,,,,,,,,,,,,,,,,,,,,,,,,,,,,,,,,,,,,,,,,,,,,,,,,,,
waveOut,1,6,69,70,74,77,74,61,58,60,71,76,75,73,74,60,63,63,65,61,76,73,77,80,80,73,70,76,70,71,60,62,49,54,59,78,81,83,80,83,69,65,71,73,70,83,83,102,112,108,102,114,115,124,138,177,177,196,198,203,183,187,177,176,189,194,203,197,206,186,170,208,252,252,279,291,255,242,281,265,286,293,295,295,289,269,260,236,177,197,190,191,194,209,198,212,220,201,178,164,164,316,340,410,433,434,339,349,364,342,345,347,311,194,185,154,147,164,194,223,233,264,277,265,270,265,248,228,212,169,149,116,110,113,104,103,108,98,94,,,,,,,,,,,,,,,,,,,,,,,,,,,,,,,,,,,,,,,,,,,,,,,,,,,,,,,,,,,,,,,,,,,,,,,,,,,,,,,,,,,,,,,,,,,,,,,,,,,,,,,,,
waveOut,1,7,69,66,80,80,71,72,84,75,67,68,72,64,59,58,76,73,73,74,78,54,51,51,65,63,64,69,79,71,67,68,85,74,74,79,78,69,82,85,86,97,99,98,105,110,131,131,127,130,130,104,99,106,112,127,139,142,145,135,129,131,146,141,165,175,178,195,225,257,274,297,308,302,279,274,269,249,251,245,230,200,192,183,180,173,180,192,182,182,182,178,166,159,155,179,177,174,167,158,124,128,117,160,179,180,201,213,193,184,198,190,186,189,184,174,144,145,143,138,182,252,275,292,305,344,373,419,444,437,399,350,274,210,208,181,133,111,82,,,,,,,,,,,,,,,,,,,,,,,,,,,,,,,,,,,,,,,,,,,,,,,,,,,,,,,,,,,,,,,,,,,,,,,,,,,,,,,,,,,,,,,,,,,,,,,,,,,,,,,,,
waveOut,1,8,59,60,64,72,70,69,73,76,78,78,76,88,91,93,94,97,86,88,97,112,111,113,113,108,107,134,143,162,163,157,156,165,166,161,162,159,165,185,204,246,261,293,287,297,343,349,322,324,308,221,221,219,201,230,249,223,215,219,211,186,195,209,222,213,206,194,181,192,178,191,186,212,170,166,155,155,112,119,118,112,105,105,97,90,91,94,81,77,99,102,109,116,135,132,132,159,286,392,407,419,452,426,336,316,305,236,149,123,115,102,109,101,88,97,90,78,99,102,126,131,129,116,,,,,,,,,,,,,,,,,,,,,,,,,,,,,,,,,,,,,,,,,,,,,,,,,,,,,,,,,,,,,,,,,,,,,,,,,,,,,,,,,,,,,,,,,,,,,,,,,,,,,,,,,,,,,,,,,,,,,,,,
waveOut,1,9,62,70,76,76,83,81,84,98,100,96,97,92,62,55,51,58,59,59,60,70,62,64,66,77,79,80,80,81,85,76,82,82,95,88,87,89,87,74,67,69,63,94,92,94,96,95,67,78,77,74,75,82,90,90,95,95,92,84,85,90,101,103,99,105,113,128,132,142,154,164,154,168,169,167,180,200,218,233,246,276,274,300,339,324,313,321,280,218,236,201,205,198,195,202,204,162,167,167,149,140,140,131,183,217,290,364,383,365,355,322,258,261,254,244,227,205,164,170,149,141,135,142,143,154,129,163,170,169,165,175,145,139,123,123,117,120,102,112,114,110,100,,,,,,,,,,,,,,,,,,,,,,,,,,,,,,,,,,,,,,,,,,,,,,,,,,,,,,,,,,,,,,,,,,,,,,,,,,,,,,,,,,,,,,,,,,,,,,,,,,,,,
waveIn,1,0,348,360,338,433,437,408,417,430,441,523,608,800,925,1174,1188,1235,1255,1207,1363,1416,1477,1509,1535,1337,1407,1485,1507,1487,1423,1443,1327,1319,1495,1518,1491,1476,1464,1391,1395,1321,1301,1348,1374,1390,1408,1391,1352,1441,1393,1338,1379,1279,1079,1072,1157,1164,1208,1204,1130,1021,902,783,599,559,514,616,615,619,631,597,439,292,256,186,153,103,98,88,76,65,61,66,69,70,71,66,53,60,66,70,71,72,67,60,55,54,62,62,72,82,88,89,106,104,99,95,90,67,60,59,66,68,76,,,,,,,,,,,,,,,,,,,,,,,,,,,,,,,,,,,,,,,,,,,,,,,,,,,,,,,,,,,,,,,,,,,,,,,,,,,,,,,,,,,,,,,,,,,,,,,,,,,,,,,,,,,,,,,,,,,,,,,,,,,,,,,,,
waveIn,1,1,59,60,64,59,54,66,68,72,106,123,182,193,214,232,244,226,314,426,603,754,848,939,965,963,973,1102,1182,1287,1320,1284,1279,1224,1129,1129,1159,1073,1195,1209,1167,1310,1322,1305,1375,1425,1352,1355,1216,1091,1096,1018,1061,1074,1128,1090,1086,1010,999,976,897,857,836,800,822,951,898,832,874,920,858,996,1084,1082,979,983,918,806,718,718,595,459,427,515,432,371,408,425,293,274,261,170,92,95,86,68,57,60,55,64,72,76,84,92,84,77,85,79,65,78,84,83,78,91,95,92,80,89,79,,,,,,,,,,,,,,,,,,,,,,,,,,,,,,,,,,,,,,,,,,,,,,,,,,,,,,,,,,,,,,,,,,,,,,,,,,,,,,,,,,,,,,,,,,,,,,,,,,,,,,,,,,,,,,,,,,,,,,,,,,,,,
waveIn,1,2,105,112,101,101,101,77,63,59,60,62,78,83,87,87,84,65,63,60,65,64,105,141,164,173,180,204,199,208,212,219,191,312,318,395,530,570,594,636,719,828,961,1040,1122,1194,1124,1060,1092,1074,954,961,1045,1162,1194,1285,1341,1352,1371,1374,1400,1371,1369,1181,1155,987,947,883,1040,1028,1165,1238,1338,1275,1293,1273,1253,1206,1260,1255,1230,1146,999,800,709,544,497,556,577,518,521,549,455,337,281,249,146,106,101,96,94,74,62,67,67,67,68,70,68,75,74,76,76,81,77,75,72,76,68,107,113,113,114,114,81,76,79,67,70,,,,,,,,,,,,,,,,,,,,,,,,,,,,,,,,,,,,,,,,,,,,,,,,,,,,,,,,,,,,,,,,,,,,,,,,,,,,,,,,,,,,,,,,,,,,,,,,,,,,,,,,,,,,,,,,,,,
waveIn,1,3,55,50,64,68,76,80,82,99,103,137,166,204,246,257,240,234,317,363,387,440,463,414,370,374,338,324,509,552,581,644,790,789,852,877,894,893,892,1082,1110,1196,1274,1336,1262,1351,1337,1341,1322,1362,1271,1313,1340,1287,1236,1247,1147,1023,1137,1159,1191,1214,1239,1191,1174,1147,1107,1068,1107,1046,1004,1028,956,826,752,685,638,624,547,481,550,550,542,528,522,504,441,411,390,374,364,314,307,306,301,203,167,158,147,139,229,239,241,247,251,129,199,207,209,212,214,146,123,109,101,93,73,85,119,147,154,163,159,133,96,89,70,72,71,,,,,,,,,,,,,,,,,,,,,,,,,,,,,,,,,,,,,,,,,,,,,,,,,,,,,,,,,,,,,,,,,,,,,,,,,,,,,,,,,,,,,,,,,,,,,,,,,,,,,,,,,,,,,,,,,,,
waveIn,1,4,64,77,84,84,76,81,77,69,69,75,68,57,59,67,62,59,57,53,57,64,70,78,98,100,101,103,135,363,590,629,672,671,682,536,511,529,535,411,407,414,377,444,533,566,565,600,573,529,621,706,761,852,1048,1089,1089,377,444,1133,1191,1296,1217,1180,1188,1263,1184,1234,1291,1260,1180,1237,1216,1225,1238,1196,1097,1042,1046,1016,1001,1028,1123,1028,1004,1084,1090,979,1106,1271,1277,1276,1296,1210,1059,1031,1020,1091,1163,1210,1112,1050,898,709,521,530,495,447,396,380,294,232,197,174,110,88,72,72,70,110,117,117,115,116,75,65,76,84,81,79,83,86,77,79,86,85,72,71,74,69,64,62,76,80,78,69,72,59,68,73,73,76,,,,,,,,,,,,,,,,,,,,,,,,,,,,,,,,,,,,,,,,,,,,,,,,,,,,,,,,,,,,,,,,,,,,,,,,,,,,,,,,,,,,,,,,,,,,
waveIn,1,5,84,83,86,75,54,109,162,212,217,220,234,278,270,269,267,244,240,235,240,249,269,227,216,228,228,199,280,347,347,391,419,377,387,467,518,659,696,717,847,864,830,828,920,871,971,1022,1042,1027,1028,1046,1071,1176,1153,1153,1116,1044,998,1008,1105,1162,1233,1187,1259,1235,1132,1114,1165,1066,1152,1180,1156,1146,1226,1179,1203,1334,1344,1275,1126,1087,889,983,1040,1071,1083,1119,988,869,833,765,637,515,489,519,433,387,384,380,284,303,298,278,249,202,136,123,111,97,90,74,73,78,77,85,85,70,71,74,74,86,85,81,81,75,57,66,98,116,115,117,129,115,97,98,99,106,129,133,,,,,,,,,,,,,,,,,,,,,,,,,,,,,,,,,,,,,,,,,,,,,,,,,,,,,,,,,,,,,,,,,,,,,,,,,,,,,,,,,,,,,,,,,,,,,,,,,,,,,,,,
waveIn,1,6,78,81,86,82,83,78,108,108,109,105,108,85,84,80,88,97,91,106,123,121,115,117,100,79,94,98,106,115,114,99,150,150,160,174,189,183,194,194,251,275,317,350,353,325,343,313,328,475,572,645,680,729,771,832,809,914,995,941,963,985,1027,983,1144,1185,1247,1229,1309,1372,1281,1239,1193,1144,1127,1244,1273,1298,1299,1187,1104,1039,1003,961,856,877,936,930,861,881,758,738,676,679,588,574,430,383,344,382,409,436,422,382,339,297,180,146,126,125,103,98,102,99,93,81,70,65,62,61,63,69,58,61,61,61,57,51,46,55,78,92,90,91,92,80,64,61,60,58,54,60,65,67,61,64,56,60,58,58,59,64,65,63,,,,,,,,,,,,,,,,,,,,,,,,,,,,,,,,,,,,,,,,,,,,,,,,,,,,,,,,,,,,,,,,,,,,,,,,,,,,,,,,,,,,,,,,,,
waveIn,1,7,112,128,130,131,121,107,81,79,78,85,82,75,77,75,63,57,57,58,72,76,78,78,72,54,46,53,67,74,82,100,199,400,686,776,864,1057,1114,1015,1080,1064,926,875,848,922,1040,1075,1129,1216,1174,1187,1259,1310,1348,1327,1267,1182,1130,1015,901,987,968,877,912,1034,951,1032,1118,1131,1196,1136,1114,1086,1102,1053,1096,1173,1143,1175,1140,1145,1109,1178,1072,1081,1046,1006,903,889,797,774,662,577,569,505,488,436,408,366,344,259,169,149,131,130,132,120,118,115,88,62,62,62,73,72,78,79,90,84,89,86,96,92,89,86,88,84,75,72,78,74,59,60,65,68,87,87,97,93,87,76,79,66,71,71,62,65,63,61,62,,,,,,,,,,,,,,,,,,,,,,,,,,,,,,,,,,,,,,,,,,,,,,,,,,,,,,,,,,,,,,,,,,,,,,,,,,,,,,,,,,,,,,,,,,,,,
waveIn,1,8,75,78,64,60,60,54,48,37,72,94,96,98,100,101,95,101,107,120,146,142,164,174,216,201,282,339,409,412,450,423,507,468,468,558,633,615,679,781,711,710,679,655,590,729,764,881,1021,1100,1108,1139,1112,1013,936,936,946,974,1039,1142,1094,1114,1049,1067,940,977,979,1121,1099,1258,1252,1374,1361,1352,1317,1384,1233,1166,1199,1136,1109,1085,1087,1079,1002,892,807,685,487,446,472,480,557,583,573,472,448,344,220,294,296,292,251,243,142,139,122,120,111,100,64,61,60,58,64,67,75,83,96,91,87,76,70,58,70,88,95,98,103,107,105,102,99,100,85,84,86,87,81,86,84,85,87,93,91,82,78,87,80,79,78,,,,,,,,,,,,,,,,,,,,,,,,,,,,,,,,,,,,,,,,,,,,,,,,,,,,,,,,,,,,,,,,,,,,,,,,,,,,,,,,,,,,,,,,,,,,,
waveIn,1,9,74,62,60,55,55,53,50,51,51,53,53,61,62,102,136,147,154,161,142,110,109,104,99,99,102,88,86,86,137,151,148,146,141,90,95,107,123,138,147,131,122,140,164,174,207,226,235,217,362,363,367,380,388,299,342,342,337,334,357,323,347,385,452,472,481,588,608,615,707,737,804,817,891,930,1097,1123,1158,1140,1097,1000,887,808,754,887,961,1132,1242,1444,1436,1453,1431,1406,1311,1318,1233,1194,1172,1122,1102,1187,1129,1123,1093,951,755,708,702,604,588,584,535,403,366,352,313,273,206,157,142,276,283,289,288,291,154,137,123,119,119,115,95,98,92,83,101,106,110,111,107,94,88,79,76,81,82,84,96,103,96,89,89,80,71,84,86,92,83,89,89,85,79,79,93,93,96,99,,,,,,,,,,,,,,,,,,,,,,,,,,,,,,,,,,,,,,,,,,,,,,,,,,,,,,,,,,,,,,,,,,,,,,,,,,,,
doubleTap,1,0,67,69,68,74,81,81,81,81,76,63,58,64,94,106,108,105,123,165,260,304,344,348,354,338,450,424,422,420,414,318,366,373,350,397,447,430,437,438,368,230,190,154,140,129,114,108,130,137,133,130,127,85,75,75,77,68,68,70,71,72,70,73,65,68,70,68,62,64,69,77,81,82,78,81,79,74,,,,,,,,,,,,,,,,,,,,,,,,,,,,,,,,,,,,,,,,,,,,,,,,,,,,,,,,,,,,,,,,,,,,,,,,,,,,,,,,,,,,,,,,,,,,,,,,,,,,,,,,,,,,,,,,,,,,,,,,,,,,,,,,,,,,,,,,,,,,,,,,,,,,,,,,,,,,,,,,,,,,,,
doubleTap,1,1,68,72,63,67,68,64,67,71,69,125,201,206,209,209,185,106,153,216,224,228,269,328,414,439,458,439,386,307,284,250,242,234,154,121,128,127,118,104,95,70,63,56,57,60,65,75,76,74,70,70,54,57,61,59,59,60,59,,,,,,,,,,,,,,,,,,,,,,,,,,,,,,,,,,,,,,,,,,,,,,,,,,,,,,,,,,,,,,,,,,,,,,,,,,,,,,,,,,,,,,,,,,,,,,,,,,,,,,,,,,,,,,,,,,,,,,,,,,,,,,,,,,,,,,,,,,,,,,,,,,,,,,,,,,,,,,,,,,,,,,,,,,,,,,,,,,,,,,,,,
doubleTap,1,2,61,62,55,59,53,62,87,175,217,252,255,254,214,179,172,174,169,181,223,336,396,467,463,452,372,312,199,190,232,225,212,204,202,117,92,92,82,81,79,69,56,63,62,57,61,59,53,55,63,59,60,66,69,63,61,60,56,60,60,63,58,58,48,,,,,,,,,,,,,,,,,,,,,,,,,,,,,,,,,,,,,,,,,,,,,,,,,,,,,,,,,,,,,,,,,,,,,,,,,,,,,,,,,,,,,,,,,,,,,,,,,,,,,,,,,,,,,,,,,,,,,,,,,,,,,,,,,,,,,,,,,,,,,,,,,,,,,,,,,,,,,,,,,,,,,,,,,,,,,,,,,,,
doubleTap,1,3,45,59,62,62,62,61,57,57,61,63,54,43,52,62,62,61,63,59,137,268,364,404,408,392,338,247,177,177,182,211,262,321,321,314,291,377,479,494,504,500,413,227,187,160,136,115,101,94,80,84,61,57,71,75,74,79,78,66,74,72,69,69,68,55,59,64,63,70,72,63,68,70,66,67,68,54,51,50,65,65,64,70,77,77,77,76,70,70,56,57,,,,,,,,,,,,,,,,,,,,,,,,,,,,,,,,,,,,,,,,,,,,,,,,,,,,,,,,,,,,,,,,,,,,,,,,,,,,,,,,,,,,,,,,,,,,,,,,,,,,,,,,,,,,,,,,,,,,,,,,,,,,,,,,,,,,,,,,,,,,,,,,,,,,,,,,
doubleTap,1,4,64,65,68,64,69,52,122,207,267,284,295,279,240,174,159,181,184,214,348,392,414,414,390,303,298,247,245,249,217,124,105,96,88,88,77,76,71,67,57,58,71,71,65,67,65,72,95,100,101,103,95,80,82,81,79,69,71,67,66,66,66,64,64,71,70,71,71,72,69,67,67,61,60,58,63,63,72,70,,,,,,,,,,,,,,,,,,,,,,,,,,,,,,,,,,,,,,,,,,,,,,,,,,,,,,,,,,,,,,,,,,,,,,,,,,,,,,,,,,,,,,,,,,,,,,,,,,,,,,,,,,,,,,,,,,,,,,,,,,,,,,,,,,,,,,,,,,,,,,,,,,,,,,,,,,,,,,,,,,,,
doubleTap,1,5,79,76,77,73,75,65,68,58,69,73,76,69,68,67,73,86,112,198,207,222,222,223,169,167,152,146,129,117,153,323,350,379,381,369,305,369,350,350,344,279,130,99,80,78,84,85,78,90,92,83,82,79,73,75,72,66,67,60,70,74,75,72,69,58,57,59,58,59,51,52,66,70,70,71,68,60,59,77,78,78,78,77,61,61,67,,,,,,,,,,,,,,,,,,,,,,,,,,,,,,,,,,,,,,,,,,,,,,,,,,,,,,,,,,,,,,,,,,,,,,,,,,,,,,,,,,,,,,,,,,,,,,,,,,,,,,,,,,,,,,,,,,,,,,,,,,,,,,,,,,,,,,,,,,,,,,,,,,,,,,,,,,,,,
doubleTap,1,6,78,82,83,85,90,81,72,75,74,73,72,72,70,66,61,59,72,121,155,188,233,241,223,202,179,118,94,107,107,96,195,271,281,284,284,253,206,196,201,206,178,135,117,107,97,97,114,114,110,106,93,75,86,86,86,85,83,64,55,57,61,68,73,76,72,69,64,63,60,62,62,60,57,67,67,68,66,71,81,81,81,83,87,67,65,,,,,,,,,,,,,,,,,,,,,,,,,,,,,,,,,,,,,,,,,,,,,,,,,,,,,,,,,,,,,,,,,,,,,,,,,,,,,,,,,,,,,,,,,,,,,,,,,,,,,,,,,,,,,,,,,,,,,,,,,,,,,,,,,,,,,,,,,,,,,,,,,,,,,,,,,,,,,
doubleTap,1,7,52,51,53,67,75,124,184,212,217,219,197,145,119,143,148,153,159,202,215,315,331,332,302,293,197,190,190,193,162,128,84,63,60,63,73,71,68,59,55,63,66,67,69,66,58,64,65,64,67,55,47,65,65,62,64,64,55,70,74,73,71,74,63,61,68,69,60,63,67,69,70,71,70,68,59,74,71,77,80,81,69,80,,,,,,,,,,,,,,,,,,,,,,,,,,,,,,,,,,,,,,,,,,,,,,,,,,,,,,,,,,,,,,,,,,,,,,,,,,,,,,,,,,,,,,,,,,,,,,,,,,,,,,,,,,,,,,,,,,,,,,,,,,,,,,,,,,,,,,,,,,,,,,,,,,,,,,,,,,,,,,,,
doubleTap,1,8,47,51,51,45,41,67,167,238,242,243,246,200,122,148,171,169,160,160,148,263,318,340,340,338,258,256,259,257,258,252,170,118,106,92,76,83,79,86,80,70,62,72,60,63,65,62,69,77,76,74,76,65,54,53,65,74,78,77,77,80,78,70,73,72,60,54,51,57,60,65,70,72,70,,,,,,,,,,,,,,,,,,,,,,,,,,,,,,,,,,,,,,,,,,,,,,,,,,,,,,,,,,,,,,,,,,,,,,,,,,,,,,,,,,,,,,,,,,,,,,,,,,,,,,,,,,,,,,,,,,,,,,,,,,,,,,,,,,,,,,,,,,,,,,,,,,,,,,,,,,,,,,,,,,,,,,,,,
doubleTap,1,9,57,57,60,55,64,65,71,69,64,63,64,61,68,90,135,223,239,252,250,230,152,160,154,154,156,237,246,274,284,285,220,211,230,230,228,230,207,129,107,102,98,95,88,76,74,75,72,75,96,105,102,101,95,86,77,79,80,85,74,68,63,82,82,81,81,86,66,62,62,64,57,55,64,61,57,73,77,75,76,77,69,72,66,64,,,,,,,,,,,,,,,,,,,,,,,,,,,,,,,,,,,,,,,,,,,,,,,,,,,,,,,,,,,,,,,,,,,,,,,,,,,,,,,,,,,,,,,,,,,,,,,,,,,,,,,,,,,,,,,,,,,,,,,,,,,,,,,,,,,,,,,,,,,,,,,,,,,,,,,,,,,,,,
fist,2,0,43,42,51,54,53,58,66,69,69,74,71,63,55,54,52,52,53,48,42,41,44,43,43,42,42,38,37,41,48,47,48,47,43,36,41,46,53,55,66,67,65,62,61,57,51,51,48,54,55,56,57,56,53,46,48,56,56,55,62,60,51,59,60,54,59,58,60,63,65,70,76,69,83,89,84,77,77,64,59,74,77,85,95,100,93,92,86,78,69,71,71,73,72,75,66,88,101,103,126,133,129,123,130,126,126,125,125,116,94,95,94,89,94,93,85,86,94,91,97,104,118,113,113,115,125,106,104,113,109,91,93,104,135,139,146,143,142,107,142,144,147,161,170,144,137,136,123,121,129,125,121,112,100,82,83,96,93,99,109,124,117,131,128,139,140,161,155,156,140,143,130,139,133,140,152,143,131,134,130,126,126,129,122,116,78,82,69,74,73,99,93,92,88,94,75,,,,,,,,,,,,,,,,,,,,,,,,,,,,,,,,,,,,,,,,,,,,,,,
fist,2,1,38,38,42,43,46,50,53,54,60,56,55,57,57,50,49,52,60,64,69,70,67,63,63,65,69,76,71,72,64,60,52,58,60,61,67,65,73,74,81,78,102,100,96,93,98,87,84,89,92,101,108,115,120,129,199,203,213,222,222,165,154,143,173,184,206,215,216,182,231,212,216,231,260,219,223,230,228,205,199,254,278,293,292,297,292,265,251,263,267,213,219,207,190,172,184,152,143,124,113,83,93,93,99,109,112,102,106,104,99,119,130,127,132,138,126,113,105,109,95,82,113,134,127,133,150,130,119,116,110,91,107,102,100,103,120,121,119,123,119,106,88,79,68,72,58,58,62,71,,,,,,,,,,,,,,,,,,,,,,,,,,,,,,,,,,,,,,,,,,,,,,,,,,,,,,,,,,,,,,,,,,,,,,,,,,,,,,,,,,,,,,,,,,,,,,
fist,2,2,52,55,59,53,53,53,52,50,49,64,64,67,66,72,56,66,79,82,78,86,87,74,79,79,74,64,77,84,86,89,90,78,70,72,76,84,91,87,89,83,76,72,75,71,74,76,89,88,91,100,100,94,111,127,117,132,162,194,188,193,190,167,136,141,151,159,160,149,147,140,125,134,148,146,141,140,138,133,136,137,139,129,143,148,146,158,173,165,160,206,223,217,214,229,212,204,209,205,220,202,211,228,229,198,213,201,166,163,157,150,137,146,140,170,185,182,185,189,166,133,139,130,123,125,116,107,97,111,95,110,100,116,111,116,110,126,122,122,133,132,125,120,129,137,134,129,124,107,77,74,78,77,,,,,,,,,,,,,,,,,,,,,,,,,,,,,,,,,,,,,,,,,,,,,,,,,,,,,,,,,,,,,,,,,,,,,,,,,,,,,,,,,,,,,,,,,,
fist,2,3,60,61,49,53,49,55,57,58,58,60,51,50,53,62,64,67,64,62,54,64,68,78,82,91,84,85,80,107,103,106,109,110,88,95,104,118,122,124,126,116,99,97,89,83,121,121,118,121,121,83,84,93,105,108,109,111,112,117,130,147,165,170,175,173,167,170,172,167,168,177,172,180,187,178,176,197,209,205,234,234,236,251,275,269,273,290,271,260,272,274,234,226,257,272,261,271,306,271,266,286,275,264,255,214,196,198,179,205,207,209,213,189,159,148,126,107,101,88,90,121,135,134,137,138,132,149,157,181,188,173,157,161,135,121,128,129,131,140,139,133,120,102,90,92,88,87,92,93,92,95,,,,,,,,,,,,,,,,,,,,,,,,,,,,,,,,,,,,,,,,,,,,,,,,,,,,,,,,,,,,,,,,,,,,,,,,,,,,,,,,,,,,,,,,,,,,
fist,2,4,78,86,64,66,58,56,49,46,42,48,53,58,57,58,59,67,61,66,71,75,66,66,64,57,50,58,84,118,134,141,137,123,94,74,83,90,106,117,134,120,119,119,116,99,101,102,107,113,114,117,118,99,89,92,109,110,122,116,116,96,103,121,130,126,130,128,119,130,137,138,136,134,120,113,110,118,136,145,152,162,165,153,155,166,199,195,222,293,302,307,314,319,379,442,474,506,532,565,534,510,482,456,345,323,299,348,333,283,276,300,266,272,290,279,244,207,192,168,159,150,127,98,95,97,105,108,111,123,132,121,122,115,96,88,92,88,99,98,99,100,105,95,96,87,79,71,75,83,82,81,89,98,93,92,98,88,74,79,82,86,87,86,80,77,,,,,,,,,,,,,,,,,,,,,,,,,,,,,,,,,,,,,,,,,,,,,,,,,,,,,,,,,,,,,,,,,,,,,,,,,,,,,,
fist,2,5,55,58,61,72,70,69,66,77,67,72,73,76,64,61,53,52,50,53,60,61,60,67,62,58,60,62,52,67,82,87,84,86,83,75,82,87,92,96,98,110,109,105,102,105,98,107,117,158,158,153,154,187,173,206,218,267,261,287,293,313,313,107,117,355,524,554,554,587,561,480,446,453,402,412,324,333,327,326,291,306,297,295,326,347,334,306,315,290,344,346,407,407,412,353,369,348,363,355,361,339,286,218,199,167,155,158,171,156,143,128,122,100,100,93,96,92,118,113,109,133,133,127,135,138,124,144,144,141,140,133,122,115,108,105,102,103,124,130,131,138,128,112,105,116,108,106,,,,,,,,,,,,,,,,,,,,,,,,,,,,,,,,,,,,,,,,,,,,,,,,,,,,,,,,,,,,,,,,,,,,,,,,,,,,,,,,,,,,,,,,,,,,,,,,
fist,2,6,63,68,67,62,67,63,57,60,63,62,67,66,69,64,61,70,72,69,74,83,73,74,80,82,89,89,94,90,91,83,83,74,79,95,95,102,104,102,81,76,84,101,99,105,106,96,81,113,110,122,128,141,141,153,194,203,198,200,194,179,168,169,156,175,147,142,135,143,119,110,110,117,109,138,172,179,235,265,255,235,245,195,152,142,147,118,122,112,115,139,149,141,141,141,138,132,159,168,173,161,166,144,146,134,130,125,122,105,109,111,108,97,95,103,94,88,86,88,75,95,106,110,109,,,,,,,,,,,,,,,,,,,,,,,,,,,,,,,,,,,,,,,,,,,,,,,,,,,,,,,,,,,,,,,,,,,,,,,,,,,,,,,,,,,,,,,,,,,,,,,,,,,,,,,,,,,,,,,,,,,,,,,
fist,2,7,61,69,75,82,83,93,93,91,87,100,83,78,77,78,59,57,58,56,71,69,70,71,68,60,59,70,71,90,99,101,93,91,83,64,67,116,118,126,133,138,111,114,103,106,109,106,123,122,111,108,112,105,123,124,119,111,110,106,104,129,141,131,125,133,142,146,157,160,161,169,171,168,174,175,201,195,200,193,195,146,145,133,158,159,168,177,181,178,186,184,169,194,250,283,283,289,291,239,206,196,212,190,186,160,153,120,102,77,85,88,81,76,78,84,93,99,103,106,135,137,144,169,183,167,180,207,201,197,189,174,139,129,116,141,146,140,131,138,120,128,128,135,124,,,,,,,,,,,,,,,,,,,,,,,,,,,,,,,,,,,,,,,,,,,,,,,,,,,,,,,,,,,,,,,,,,,,,,,,,,,,,,,,,,,,,,,,,,,,,,,,,,,
fist,2,8,63,64,67,67,62,57,57,54,40,40,43,55,59,63,63,61,54,49,47,48,48,47,51,47,46,44,51,55,61,65,66,64,61,71,70,86,94,115,120,140,141,136,125,118,94,96,106,104,105,112,106,98,97,99,105,106,133,155,160,165,169,151,140,173,167,177,187,260,246,287,327,337,391,421,408,390,399,329,345,340,352,363,339,293,291,264,238,251,256,238,234,216,197,176,180,190,186,184,188,203,180,170,160,155,136,132,141,130,106,129,131,125,131,145,118,114,118,118,112,114,108,98,97,84,74,,,,,,,,,,,,,,,,,,,,,,,,,,,,,,,,,,,,,,,,,,,,,,,,,,,,,,,,,,,,,,,,,,,,,,,,,,,,,,,,,,,,,,,,,,,,,,,,,,,,,,,,,,,,,,,,,,,,,
fist,2,9,59,78,80,82,85,87,71,73,80,82,83,83,81,67,64,60,58,54,55,57,68,83,89,98,99,93,79,80,71,69,68,67,55,67,69,70,71,76,76,78,93,104,101,100,100,90,85,87,88,92,104,113,122,119,116,116,103,109,119,116,108,113,107,104,110,106,104,100,107,110,118,121,131,144,160,157,155,143,139,141,156,194,202,196,188,175,150,143,218,220,262,268,271,229,230,192,186,207,206,223,222,235,240,233,253,267,244,244,245,217,205,205,191,195,180,166,166,143,120,106,110,98,95,84,80,83,82,85,84,98,93,102,105,104,96,96,90,82,82,73,69,72,77,77,83,89,89,85,,,,,,,,,,,,,,,,,,,,,,,,,,,,,,,,,,,,,,,,,,,,,,,,,,,,,,,,,,,,,,,,,,,,,,,,,,,,,,,,,,,,,,,,,,,,,,
fingersSpread,2,0,40,45,60,65,66,70,74,73,75,75,71,69,65,63,61,69,74,69,66,67,82,92,155,251,358,381,395,413,376,329,325,332,291,290,319,338,363,383,403,352,328,295,300,337,337,377,379,389,349,365,337,343,310,304,296,289,270,289,280,271,263,281,271,270,257,291,275,261,248,250,183,155,141,130,102,77,81,79,73,79,95,98,100,114,113,103,94,90,82,78,84,88,91,82,84,76,108,129,136,139,146,125,98,103,108,94,,,,,,,,,,,,,,,,,,,,,,,,,,,,,,,,,,,,,,,,,,,,,,,,,,,,,,,,,,,,,,,,,,,,,,,,,,,,,,,,,,,,,,,,,,,,,,,,,,,,,,,,,,,,,,,,,,,,,,,,,,,,,,,,,,,,,,,,
fingersSpread,2,1,90,101,100,96,110,92,83,81,92,79,90,96,97,96,115,164,172,180,191,206,177,221,247,244,226,232,187,163,189,201,188,181,201,185,221,229,242,224,220,187,173,191,202,217,206,230,233,244,255,269,281,269,249,245,305,285,288,295,286,225,243,224,217,253,264,266,274,291,250,276,260,276,275,280,223,213,185,139,121,152,150,154,163,162,120,114,101,86,78,91,85,81,86,85,72,67,65,54,72,79,81,82,82,64,57,57,54,55,52,57,63,64,71,73,77,80,82,79,81,73,65,,,,,,,,,,,,,,,,,,,,,,,,,,,,,,,,,,,,,,,,,,,,,,,,,,,,,,,,,,,,,,,,,,,,,,,,,,,,,,,,,,,,,,,,,,,,,,,,,,,,,,,,,,,,,,,,,,,,,,,,,
fingersSpread,2,2,57,59,51,56,61,64,74,81,81,81,85,73,74,81,86,83,87,83,76,72,72,88,125,127,141,150,156,136,141,132,134,118,121,122,128,168,211,271,310,363,353,374,357,359,324,338,312,287,295,286,271,323,360,330,337,386,390,372,376,370,345,400,394,397,388,372,233,223,198,210,184,200,188,186,185,188,161,166,155,134,116,108,89,93,89,78,83,86,83,80,82,81,78,76,72,74,66,61,64,72,77,81,82,77,69,62,64,62,62,63,65,68,76,73,,,,,,,,,,,,,,,,,,,,,,,,,,,,,,,,,,,,,,,,,,,,,,,,,,,,,,,,,,,,,,,,,,,,,,,,,,,,,,,,,,,,,,,,,,,,,,,,,,,,,,,,,,,,,,,,,,,,,,,,,,,,,,,,
fingersSpread,2,3,65,63,65,64,64,54,55,49,57,68,68,69,78,73,65,64,169,203,216,237,266,269,244,252,235,205,146,162,170,217,229,276,307,311,301,303,287,252,244,273,265,322,347,343,326,330,264,243,233,248,249,279,274,283,293,309,296,293,297,288,272,260,265,311,292,302,311,297,241,244,223,183,186,179,141,162,157,157,143,142,99,90,77,79,72,74,87,96,96,105,103,107,103,97,88,86,68,64,70,73,71,73,80,80,75,76,78,65,,,,,,,,,,,,,,,,,,,,,,,,,,,,,,,,,,,,,,,,,,,,,,,,,,,,,,,,,,,,,,,,,,,,,,,,,,,,,,,,,,,,,,,,,,,,,,,,,,,,,,,,,,,,,,,,,,,,,,,,,,,,,,,,,,,,,,
fingersSpread,2,4,88,77,81,81,75,57,63,58,64,68,71,82,92,141,201,222,219,278,269,232,219,226,160,145,160,173,170,155,167,153,139,131,131,116,129,129,145,146,151,155,216,214,263,261,269,220,227,186,195,193,188,174,156,162,175,194,210,212,204,177,172,160,185,183,188,185,178,154,176,173,170,180,190,185,179,192,185,180,159,182,177,177,190,210,187,187,203,190,178,191,181,153,147,127,138,131,147,145,148,116,118,95,93,84,89,80,86,75,86,77,76,71,72,78,77,74,70,74,52,61,64,65,59,69,71,88,89,94,88,87,87,85,82,83,79,61,62,59,53,49,46,48,55,59,,,,,,,,,,,,,,,,,,,,,,,,,,,,,,,,,,,,,,,,,,,,,,,,,,,,,,,,,,,,,,,,,,,,,,,,,,,,,,,,,,,,,,,,,,,,,,,,,,
fingersSpread,2,5,48,47,53,58,59,58,54,61,58,61,64,64,61,62,65,62,65,58,55,48,50,69,71,75,78,83,66,76,79,98,124,138,144,155,178,169,167,183,225,216,214,228,213,172,177,182,195,197,190,195,196,174,196,197,174,165,178,167,160,178,199,200,194,220,228,209,194,197,207,199,211,237,272,259,271,283,264,227,229,206,191,250,247,230,231,232,200,205,215,219,203,161,142,120,92,85,74,83,80,94,111,115,108,107,92,72,67,63,59,54,51,53,57,64,66,65,64,63,57,69,89,98,103,108,99,85,71,62,81,,,,,,,,,,,,,,,,,,,,,,,,,,,,,,,,,,,,,,,,,,,,,,,,,,,,,,,,,,,,,,,,,,,,,,,,,,,,,,,,,,,,,,,,,,,,,,,,,,,,,,,,,,,,,,,,,
fingersSpread,2,6,52,61,60,63,63,62,63,74,80,82,82,80,73,69,70,69,64,67,59,61,65,69,71,108,136,141,143,155,161,171,173,171,171,161,130,146,170,181,174,187,184,177,211,209,213,261,267,238,260,257,206,197,202,200,197,209,223,215,192,182,191,192,203,202,210,195,179,182,192,222,234,236,225,234,200,199,208,212,209,226,232,221,210,227,224,207,199,196,160,238,232,237,240,235,160,143,134,123,126,103,128,131,133,126,119,100,101,100,108,115,106,102,101,91,71,72,81,76,75,71,70,46,55,61,70,72,77,71,76,71,67,78,79,76,74,,,,,,,,,,,,,,,,,,,,,,,,,,,,,,,,,,,,,,,,,,,,,,,,,,,,,,,,,,,,,,,,,,,,,,,,,,,,,,,,,,,,,,,,,,,,,,,,,,,,,,,,,,,
fingersSpread,2,7,74,74,74,66,68,74,75,72,74,76,66,61,59,69,73,80,89,99,85,85,78,68,61,70,70,80,79,82,78,71,61,65,58,67,71,77,82,89,170,223,282,301,325,302,284,232,209,172,150,117,103,108,181,205,205,249,256,215,212,228,241,246,255,288,282,251,248,239,210,214,191,175,164,131,119,133,153,177,189,185,172,189,214,208,216,219,192,185,182,179,186,193,163,159,169,262,283,349,368,378,355,351,299,323,329,384,375,375,377,358,316,334,346,298,294,222,183,109,103,94,91,79,85,73,73,72,68,66,63,55,62,64,67,69,83,77,86,,,,,,,,,,,,,,,,,,,,,,,,,,,,,,,,,,,,,,,,,,,,,,,,,,,,,,,,,,,,,,,,,,,,,,,,,,,,,,,,,,,,,,,,,,,,,,,,,,,,,,,,,
fingersSpread,2,8,57,53,48,48,42,49,60,59,60,64,65,66,69,77,71,66,59,59,54,56,54,52,64,73,73,74,74,61,43,54,111,194,211,221,253,263,217,208,205,178,147,164,166,195,195,195,173,170,153,158,158,195,216,210,199,216,242,237,270,280,268,232,233,215,215,210,235,256,264,283,318,316,305,353,352,356,344,364,309,304,268,260,229,211,242,239,234,256,262,208,202,225,233,265,266,268,245,197,132,125,118,123,107,110,140,143,142,146,132,108,97,91,82,86,77,77,78,87,87,86,88,83,71,68,66,68,82,87,82,90,89,77,74,80,70,67,78,81,81,,,,,,,,,,,,,,,,,,,,,,,,,,,,,,,,,,,,,,,,,,,,,,,,,,,,,,,,,,,,,,,,,,,,,,,,,,,,,,,,,,,,,,,,,,,,,,,,,,,,,,,
fingersSpread,2,9,59,65,62,55,55,62,67,75,79,87,86,89,89,91,83,86,79,74,76,75,66,69,71,66,67,72,68,62,57,64,55,56,58,55,45,44,37,51,65,67,74,75,72,75,77,88,88,84,104,152,162,197,250,249,235,240,214,154,148,148,134,148,173,183,173,190,225,225,237,237,228,197,198,232,251,265,275,298,255,244,243,231,192,226,256,276,273,266,252,236,242,253,271,304,297,260,279,273,229,248,277,263,263,280,258,221,203,184,152,141,134,120,115,99,98,97,92,89,90,85,93,89,83,76,72,59,57,86,89,91,97,110,90,87,89,84,68,72,73,68,67,70,70,69,,,,,,,,,,,,,,,,,,,,,,,,,,,,,,,,,,,,,,,,,,,,,,,,,,,,,,,,,,,,,,,,,,,,,,,,,,,,,,,,,,,,,,,,,,,,,,,,,,
waveOut,2,0,79,76,74,72,92,86,88,92,100,78,87,84,82,72,72,62,59,55,52,50,59,61,60,60,62,60,68,74,72,79,86,92,98,106,109,111,105,106,130,138,144,174,186,273,314,321,309,314,251,197,212,288,322,338,339,322,266,268,270,276,282,285,233,199,214,213,202,202,225,194,185,227,372,374,394,416,438,331,309,288,259,166,144,133,126,140,160,161,165,165,155,132,121,109,101,84,88,85,79,79,,,,,,,,,,,,,,,,,,,,,,,,,,,,,,,,,,,,,,,,,,,,,,,,,,,,,,,,,,,,,,,,,,,,,,,,,,,,,,,,,,,,,,,,,,,,,,,,,,,,,,,,,,,,,,,,,,,,,,,,,,,,,,,,,,,,,,,,,,,,,,
waveOut,2,1,70,70,67,75,70,71,80,76,73,78,78,64,62,57,50,43,41,53,57,57,57,59,51,49,50,53,55,52,53,56,63,67,73,76,81,89,94,107,126,167,184,191,186,179,142,121,180,231,237,253,258,222,194,238,285,311,332,330,324,287,259,225,214,186,177,193,244,264,260,257,244,219,193,175,186,182,189,181,179,153,171,134,132,136,133,96,88,82,82,80,73,66,66,54,67,156,275,364,436,580,583,543,493,434,209,146,136,139,138,133,137,122,102,102,108,115,110,102,92,,,,,,,,,,,,,,,,,,,,,,,,,,,,,,,,,,,,,,,,,,,,,,,,,,,,,,,,,,,,,,,,,,,,,,,,,,,,,,,,,,,,,,,,,,,,,,,,,,,,,,,,,,,,,,,,,,,,,,,,,,,
waveOut,2,2,91,87,73,78,69,68,77,80,78,80,79,72,65,61,60,69,66,69,70,77,68,73,77,81,77,87,84,80,75,71,74,81,92,104,137,165,198,228,232,241,241,219,198,214,234,232,237,253,245,239,243,251,247,246,251,267,301,311,304,296,285,257,233,232,219,243,245,237,262,312,290,279,285,272,201,204,222,223,206,199,175,152,158,167,187,198,182,170,170,171,182,196,215,214,201,198,289,370,384,401,419,432,397,429,425,435,371,326,264,244,174,145,135,128,125,119,130,131,130,120,130,112,100,86,89,64,81,102,106,104,104,,,,,,,,,,,,,,,,,,,,,,,,,,,,,,,,,,,,,,,,,,,,,,,,,,,,,,,,,,,,,,,,,,,,,,,,,,,,,,,,,,,,,,,,,,,,,,,,,,,,,,,,,,,,,,,
waveOut,2,3,56,55,76,81,78,70,71,48,45,54,71,83,83,82,88,78,64,65,62,66,69,75,83,89,75,73,72,68,61,70,72,70,65,67,61,75,82,85,86,93,86,90,114,124,124,123,135,130,138,171,183,188,198,206,190,193,196,218,248,254,255,260,240,202,202,217,222,211,210,215,195,182,195,201,176,180,165,195,181,179,165,160,103,103,110,115,127,118,127,155,170,182,190,189,176,174,151,143,131,110,73,61,53,47,64,86,87,84,90,84,62,92,97,92,94,93,65,75,81,74,78,90,87,88,,,,,,,,,,,,,,,,,,,,,,,,,,,,,,,,,,,,,,,,,,,,,,,,,,,,,,,,,,,,,,,,,,,,,,,,,,,,,,,,,,,,,,,,,,,,,,,,,,,,,,,,,,,,,,,,,,,,,,
waveOut,2,4,56,67,74,77,95,111,109,106,105,89,81,78,87,84,83,71,72,64,65,66,65,70,61,72,77,80,77,77,80,80,77,71,78,65,71,69,70,82,95,88,101,104,105,94,93,78,78,60,61,65,78,93,94,137,136,140,142,146,107,109,109,78,78,60,127,132,146,169,189,190,265,310,323,325,360,338,311,304,303,274,253,235,246,251,229,208,202,179,187,190,246,257,259,241,253,227,258,257,257,275,304,306,299,295,257,189,113,103,104,110,114,120,123,118,114,107,89,75,66,64,66,65,69,73,72,70,73,70,63,69,75,79,76,77,72,63,63,61,,,,,,,,,,,,,,,,,,,,,,,,,,,,,,,,,,,,,,,,,,,,,,,,,,,,,,,,,,,,,,,,,,,,,,,,,,,,,,,,,,,,,,,,,,,,,,,,,,,,,,,,
waveOut,2,5,69,81,86,88,81,89,87,82,77,74,63,53,60,62,65,67,67,58,52,55,48,52,53,56,54,54,48,60,69,70,73,74,64,69,94,102,102,103,92,70,72,71,78,83,85,71,84,83,89,97,101,95,97,100,106,126,139,171,190,205,222,231,224,220,210,188,171,190,185,200,236,245,249,263,262,231,245,216,208,184,199,182,216,270,283,282,276,249,176,161,130,134,122,114,97,100,86,97,91,101,117,123,115,116,119,110,102,101,101,91,88,95,145,195,212,208,206,174,109,69,66,63,57,83,83,83,79,84,,,,,,,,,,,,,,,,,,,,,,,,,,,,,,,,,,,,,,,,,,,,,,,,,,,,,,,,,,,,,,,,,,,,,,,,,,,,,,,,,,,,,,,,,,,,,,,,,,,,,,,,,,,,,,,,,,
waveOut,2,6,78,74,70,84,104,113,121,122,110,81,69,62,66,67,71,70,65,63,59,69,68,69,71,82,92,100,103,115,115,107,102,107,94,88,90,88,79,110,110,121,152,159,153,170,169,169,176,184,190,205,199,200,189,180,183,183,178,182,182,160,157,165,155,158,152,140,140,161,179,201,230,228,250,260,258,255,270,266,262,272,267,265,253,265,257,256,254,269,260,251,258,330,316,301,302,289,187,166,182,189,191,186,196,171,193,204,219,216,212,167,140,100,78,70,76,70,79,87,93,113,136,141,143,148,139,118,113,114,115,111,106,97,93,90,116,136,138,,,,,,,,,,,,,,,,,,,,,,,,,,,,,,,,,,,,,,,,,,,,,,,,,,,,,,,,,,,,,,,,,,,,,,,,,,,,,,,,,,,,,,,,,,,,,,,,,,,,,,,,,
waveOut,2,7,77,84,84,77,70,74,67,60,59,69,60,60,78,88,85,86,86,72,68,64,61,63,62,57,62,73,77,78,81,88,84,81,90,92,86,84,85,88,88,100,102,106,99,97,89,87,82,89,102,110,125,168,176,184,201,215,209,228,241,234,227,210,224,203,201,205,226,191,184,180,161,124,114,155,173,197,235,264,269,267,261,284,277,258,251,244,206,257,265,313,327,325,281,277,227,228,244,230,243,236,287,271,268,264,285,209,197,218,261,259,291,324,364,352,347,332,311,311,297,280,267,252,167,123,155,168,157,154,161,149,142,143,150,171,159,149,151,149,120,119,122,126,123,116,110,111,114,107,104,95,85,72,67,60,83,93,90,93,104,94,,,,,,,,,,,,,,,,,,,,,,,,,,,,,,,,,,,,,,,,,,,,,,,,,,,,,,,,,,,,,,,,,,,,,,,,,,,,,,,,,,
waveOut,2,8,88,86,89,90,91,82,81,79,76,83,89,88,86,85,88,82,82,77,81,91,86,87,93,92,78,78,86,80,79,87,87,78,94,139,151,158,178,188,189,187,206,226,252,279,325,378,373,370,381,378,352,368,359,359,364,335,338,365,321,284,311,326,303,309,328,315,267,257,253,238,244,256,256,252,238,212,192,187,194,179,170,160,146,136,127,130,128,117,106,117,106,135,137,137,123,143,116,129,129,133,107,106,85,81,73,63,59,54,69,99,107,108,109,99,67,51,46,48,47,72,88,103,109,111,98,92,83,85,85,105,,,,,,,,,,,,,,,,,,,,,,,,,,,,,,,,,,,,,,,,,,,,,,,,,,,,,,,,,,,,,,,,,,,,,,,,,,,,,,,,,,,,,,,,,,,,,,,,,,,,,,,,,,,,,,,,
waveOut,2,9,51,56,62,67,70,69,72,74,77,71,70,65,81,76,75,80,89,81,85,95,90,82,75,70,56,63,61,53,53,59,54,66,77,80,75,78,71,64,67,70,72,71,69,67,67,60,61,65,58,59,65,70,71,92,126,128,157,168,170,155,157,130,136,130,135,163,192,227,261,282,286,293,269,261,240,220,199,189,156,154,164,168,167,192,184,175,165,174,148,165,165,159,165,173,156,155,161,176,172,200,221,219,198,200,190,204,240,243,247,247,251,214,238,247,260,233,238,206,187,145,138,129,135,136,135,125,122,123,109,116,126,143,132,129,142,177,188,215,219,208,173,146,106,100,90,89,79,65,57,60,68,71,74,77,79,81,89,103,103,121,116,110,94,94,68,64,56,,,,,,,,,,,,,,,,,,,,,,,,,,,,,,,,,,,,,,,,,,,,,,,,,,,,,,,,,,,,,,,,,,,,,,,,,,,
waveIn,2,0,73,66,63,60,69,75,126,147,155,198,224,233,274,296,305,297,287,302,292,306,321,366,329,386,374,401,430,537,547,588,587,604,548,591,573,608,608,632,599,721,701,701,695,679,550,599,566,536,552,561,499,559,562,565,536,508,452,419,337,344,371,373,427,499,498,513,474,415,353,323,240,225,245,196,184,217,199,175,181,172,123,123,133,117,125,122,117,94,98,89,100,110,107,99,96,88,77,76,91,92,91,98,96,86,87,85,79,84,78,71,69,70,69,64,66,,,,,,,,,,,,,,,,,,,,,,,,,,,,,,,,,,,,,,,,,,,,,,,,,,,,,,,,,,,,,,,,,,,,,,,,,,,,,,,,,,,,,,,,,,,,,,,,,,,,,,,,,,,,,,,,,,,,,,,,,,,,,,,
waveIn,2,1,59,66,66,66,81,84,82,80,83,74,62,66,93,107,120,189,221,214,213,215,177,141,161,194,213,222,231,228,222,225,265,271,281,279,283,239,260,279,271,253,278,251,255,261,312,378,432,475,530,590,611,685,714,785,782,776,771,757,669,678,709,653,655,672,689,671,785,790,841,811,814,783,783,725,726,726,652,619,601,584,511,492,483,504,456,438,399,442,379,361,354,333,186,163,162,175,149,151,150,143,134,142,141,156,177,168,158,154,138,114,109,139,140,135,129,132,120,115,119,117,102,97,100,109,106,111,104,101,87,87,81,74,93,94,98,97,94,81,80,86,82,,,,,,,,,,,,,,,,,,,,,,,,,,,,,,,,,,,,,,,,,,,,,,,,,,,,,,,,,,,,,,,,,,,,,,,,,,,,,,,,,,,,,,,,,,,,,,,,,,,,,
waveIn,2,2,85,79,66,67,64,60,64,70,91,200,256,326,455,533,525,570,559,483,413,397,343,352,362,352,374,374,425,438,503,496,546,497,537,535,561,554,596,604,633,688,720,716,751,723,707,675,645,554,570,591,573,618,675,755,696,680,669,629,578,715,767,802,892,874,792,789,763,729,691,689,632,616,499,472,411,389,340,318,304,299,272,281,309,311,293,310,261,206,164,146,109,109,99,94,93,84,63,55,70,73,78,82,81,71,76,75,73,71,74,68,72,74,83,102,104,102,110,108,86,83,80,68,72,,,,,,,,,,,,,,,,,,,,,,,,,,,,,,,,,,,,,,,,,,,,,,,,,,,,,,,,,,,,,,,,,,,,,,,,,,,,,,,,,,,,,,,,,,,,,,,,,,,,,,,,,,,,,,,,,,,,,,,
waveIn,2,3,121,124,106,94,92,89,84,100,99,100,102,103,89,74,82,90,103,108,122,158,226,272,305,346,362,361,368,366,422,437,488,492,493,452,445,433,434,496,494,525,621,649,636,802,896,867,903,942,917,893,969,1025,1069,1030,1056,1001,996,969,1042,977,998,1002,1112,1043,1047,1090,1030,878,873,863,775,867,861,876,855,789,634,601,512,491,478,497,482,444,415,397,317,300,291,296,293,287,207,157,125,110,95,91,85,90,75,71,74,72,67,64,78,76,84,77,81,79,78,88,102,105,99,100,85,72,,,,,,,,,,,,,,,,,,,,,,,,,,,,,,,,,,,,,,,,,,,,,,,,,,,,,,,,,,,,,,,,,,,,,,,,,,,,,,,,,,,,,,,,,,,,,,,,,,,,,,,,,,,,,,,,,,,,,,,,,,
waveIn,2,4,97,97,100,99,103,88,84,89,102,100,95,99,91,76,65,64,64,63,73,94,112,113,117,116,117,107,101,96,90,76,86,87,113,124,156,156,179,170,168,163,229,397,629,756,826,868,966,957,949,968,976,828,718,700,669,721,774,892,937,1030,966,1006,1018,985,889,957,950,929,1008,1042,1037,1095,1098,1116,1155,1156,1164,1146,1093,1036,1055,1056,1109,1089,1089,1079,1018,950,1002,990,967,965,978,880,905,877,812,748,764,743,752,749,795,796,845,843,852,808,736,639,797,763,713,728,696,400,381,358,304,229,211,168,160,136,124,119,126,139,134,128,114,100,76,76,88,92,93,98,101,92,79,81,87,92,96,103,117,117,,,,,,,,,,,,,,,,,,,,,,,,,,,,,,,,,,,,,,,,,,,,,,,,,,,,,,,,,,,,,,,,,,,,,,,,,,,,,,,,,,,,,,,,,,,,,,
waveIn,2,5,78,65,70,70,82,84,82,79,74,69,70,64,61,63,60,64,64,73,74,73,69,69,61,63,68,68,79,81,90,95,94,91,95,88,82,84,89,81,76,75,78,76,83,103,127,179,227,263,287,298,308,349,367,360,417,406,445,494,622,710,828,897,973,920,939,900,843,712,766,690,725,744,851,831,867,818,849,827,858,793,845,792,804,752,781,728,808,806,815,864,883,784,712,687,611,584,596,617,595,575,542,513,488,551,615,592,599,571,501,354,313,240,190,149,142,144,139,149,144,142,130,123,107,101,91,99,98,106,106,106,124,159,163,190,198,188,162,150,107,90,81,84,88,98,110,112,106,102,98,86,81,,,,,,,,,,,,,,,,,,,,,,,,,,,,,,,,,,,,,,,,,,,,,,,,,,,,,,,,,,,,,,,,,,,,,,,,,,,,,,,,,,,,,,,,,,,
waveIn,2,6,95,89,91,87,93,86,87,95,114,107,106,104,137,133,139,140,146,111,97,92,98,103,111,141,152,233,262,380,400,467,485,518,454,470,544,588,627,811,847,840,854,943,843,817,773,744,582,568,584,599,602,612,630,605,591,575,582,529,544,587,559,569,605,625,761,909,1029,1162,1208,1141,1147,1080,997,938,970,913,870,766,726,606,466,427,478,484,505,472,445,369,340,269,274,235,201,221,214,204,214,189,171,153,156,127,128,120,130,116,122,137,127,114,109,121,104,97,105,120,100,98,99,85,74,,,,,,,,,,,,,,,,,,,,,,,,,,,,,,,,,,,,,,,,,,,,,,,,,,,,,,,,,,,,,,,,,,,,,,,,,,,,,,,,,,,,,,,,,,,,,,,,,,,,,,,,,,,,,,,,,,,,,,,,,
waveIn,2,7,95,102,94,101,102,96,94,115,120,118,122,115,89,70,77,97,106,106,125,139,145,149,152,155,142,126,113,110,100,95,105,121,143,146,153,140,131,105,96,92,113,205,440,526,573,716,783,791,802,812,778,755,759,776,788,786,833,780,772,806,845,808,817,813,760,762,788,794,856,870,804,748,696,570,511,475,429,439,414,450,482,525,520,567,571,523,491,497,445,400,455,436,420,408,402,313,304,266,227,216,190,161,128,129,123,119,116,138,135,128,134,137,115,111,128,141,151,149,145,150,144,139,139,137,118,95,97,101,103,95,89,72,77,98,98,112,117,112,109,146,158,160,163,158,141,,,,,,,,,,,,,,,,,,,,,,,,,,,,,,,,,,,,,,,,,,,,,,,,,,,,,,,,,,,,,,,,,,,,,,,,,,,,,,,,,,,,,,,,,,,,,,,,,
waveIn,2,8,96,98,101,105,100,97,100,102,117,118,122,119,124,133,145,185,190,190,211,286,279,281,284,298,272,257,284,320,340,386,392,418,466,452,477,495,478,442,473,425,432,505,600,720,793,1011,1057,1078,1112,1154,1040,1048,1100,1041,1059,1046,1004,946,993,927,887,988,1105,1072,1071,1076,1060,964,901,947,1017,970,901,975,902,824,758,743,706,675,667,634,604,503,526,458,433,379,381,289,292,296,301,252,205,170,152,134,125,112,112,98,96,100,103,106,141,167,164,171,167,139,109,103,92,91,82,,,,,,,,,,,,,,,,,,,,,,,,,,,,,,,,,,,,,,,,,,,,,,,,,,,,,,,,,,,,,,,,,,,,,,,,,,,,,,,,,,,,,,,,,,,,,,,,,,,,,,,,,,,,,,,,,,,,,,,,,,,,,
waveIn,2,9,90,91,98,98,95,88,104,94,86,102,103,93,107,114,145,164,185,183,218,264,266,264,314,337,299,310,319,359,355,468,503,661,752,914,914,264,266,1006,1109,1174,1202,1167,1135,1113,1034,1057,998,948,962,948,887,937,970,954,992,993,970,938,849,832,800,815,858,873,820,844,896,840,824,797,724,570,547,518,476,408,337,237,207,177,167,164,159,134,113,99,92,81,71,52,46,53,58,69,81,94,97,102,99,91,84,79,68,68,72,69,81,79,76,77,99,92,108,116,112,104,118,112,106,108,99,93,91,,,,,,,,,,,,,,,,,,,,,,,,,,,,,,,,,,,,,,,,,,,,,,,,,,,,,,,,,,,,,,,,,,,,,,,,,,,,,,,,,,,,,,,,,,,,,,,,,,,,,,,,,,,,,,,,,,,,,,,
doubleTap,2,0,89,90,91,91,93,96,102,102,104,103,91,91,95,91,88,90,84,103,103,100,111,109,82,80,82,72,66,69,75,71,64,71,85,98,106,130,142,143,139,134,122,116,125,244,280,284,308,308,235,199,193,148,129,106,96,87,98,111,110,105,115,114,109,125,130,121,113,114,118,113,116,112,107,80,89,78,79,78,101,105,105,103,110,90,77,86,95,85,90,84,77,77,68,78,80,91,83,85,71,77,69,68,67,82,85,84,88,88,85,80,74,74,84,73,77,87,88,81,88,86,83,89,101,95,99,99,93,81,74,79,71,91,95,97,85,95,85,80,87,94,94,89,102,106,104,100,99,91,88,90,84,98,94,84,80,86,67,61,67,80,95,114,133,154,184,230,317,332,328,313,275,165,144,201,238,294,297,319,301,279,224,222,222,192,185,189,188,131,136,135,118,106,99,102,86,90,96,100,135,140,141,135,130,92,88,84,82,80,68,64,70,86,90,92,94,101,91,86,97,102,96,92,96,86,98,102,107,105,102,80,75,71,67,64,73,86,86,84,89,92,79,88
doubleTap,2,1,87,76,68,76,74,70,71,77,76,87,86,94,94,92,80,77,67,72,81,89,90,88,80,82,74,82,77,83,77,94,89,96,93,100,94,97,97,115,102,91,89,83,70,95,194,235,246,265,360,356,339,336,318,202,135,175,192,273,298,332,377,441,438,464,469,425,373,333,265,212,200,149,133,142,142,126,121,119,108,96,82,89,79,93,88,105,104,105,92,98,86,83,75,80,76,75,67,71,71,74,78,96,97,93,88,87,75,84,86,,,,,,,,,,,,,,,,,,,,,,,,,,,,,,,,,,,,,,,,,,,,,,,,,,,,,,,,,,,,,,,,,,,,,,,,,,,,,,,,,,,,,,,,,,,,,,,,,,,,,,,,,,,,,,,,,,,,,,,,,,,,,,,,,,,,,
doubleTap,2,2,68,66,59,57,55,45,55,63,72,81,102,105,100,97,89,69,59,61,72,74,75,82,88,105,118,121,115,112,91,82,107,111,117,114,113,83,88,89,88,94,103,109,197,219,228,240,288,254,236,226,210,127,87,205,249,307,364,399,634,798,831,830,820,638,430,322,284,282,279,215,219,200,198,187,188,170,168,141,127,127,124,127,131,121,118,119,105,110,122,128,136,127,131,122,112,111,114,104,102,104,95,79,80,84,81,82,94,84,83,91,90,91,92,86,89,90,91,97,102,93,,,,,,,,,,,,,,,,,,,,,,,,,,,,,,,,,,,,,,,,,,,,,,,,,,,,,,,,,,,,,,,,,,,,,,,,,,,,,,,,,,,,,,,,,,,,,,,,,,,,,,,,,,,,,,,,,,,,,,,,,,
doubleTap,2,3,93,95,101,99,91,80,78,73,79,73,89,89,85,87,85,67,72,78,75,78,83,75,65,60,71,69,71,70,80,71,80,82,92,97,97,90,93,87,75,117,146,159,159,160,138,125,107,106,101,89,68,65,91,106,130,169,191,196,191,176,152,196,249,305,342,357,363,338,305,267,240,178,153,127,130,128,122,111,103,95,91,92,98,102,97,94,110,109,106,110,113,100,97,90,84,84,100,109,110,110,109,96,72,68,60,60,57,66,67,70,69,71,75,80,79,85,90,88,85,93,107,108,103,102,96,85,,,,,,,,,,,,,,,,,,,,,,,,,,,,,,,,,,,,,,,,,,,,,,,,,,,,,,,,,,,,,,,,,,,,,,,,,,,,,,,,,,,,,,,,,,,,,,,,,,,,,,,,,,,,,,,,,,,,
doubleTap,2,4,101,115,121,114,104,89,65,51,59,58,67,74,77,75,84,73,68,65,62,76,81,82,82,80,58,52,46,60,66,63,68,81,78,78,90,86,77,76,108,109,133,153,200,218,225,215,204,184,203,216,316,366,362,334,323,235,158,144,138,149,156,141,142,145,130,101,102,89,100,97,119,120,120,106,104,83,74,91,100,91,86,85,64,47,54,56,61,62,67,70,71,73,73,66,62,65,77,78,82,80,77,82,90,92,95,94,78,,,,,,,,,,,,,,,,,,,,,,,,,,,,,,,,,,,,,,,,,,,,,,,,,,,,,,,,,,,,,,,,,,,,,,,,,,,,,,,,,,,,,,,,,,,,,,,,,,,,,,,,,,,,,,,,,,,,,,,,,,,,,,,,,,,,,,,
doubleTap,2,6,54,55,62,78,80,79,79,70,57,71,83,93,104,102,96,89,77,63,65,66,64,67,73,74,78,81,84,78,71,62,61,63,67,69,72,70,64,60,80,86,130,158,186,186,189,160,134,103,141,203,291,303,329,349,326,260,250,215,158,128,128,116,109,99,110,97,97,96,86,88,87,92,89,95,89,90,84,84,79,70,55,55,58,59,64,72,74,77,76,71,68,66,78,90,99,100,100,95,80,73,72,72,73,74,69,66,67,56,57,63,69,79,107,117,116,118,115,90,74,78,82,,,,,,,,,,,,,,,,,,,,,,,,,,,,,,,,,,,,,,,,,,,,,,,,,,,,,,,,,,,,,,,,,,,,,,,,,,,,,,,,,,,,,,,,,,,,,,,,,,,,,,,,,,,,,,,,,,,,,,,,,
doubleTap,2,7,86,79,82,67,61,59,65,66,67,74,86,92,93,89,81,76,71,73,73,73,72,75,73,79,83,85,91,89,87,95,95,80,75,92,115,172,233,248,250,246,209,141,124,150,266,300,330,355,393,373,375,354,329,267,185,127,111,100,84,82,73,72,85,94,98,95,90,84,81,87,85,81,75,74,57,75,78,81,77,85,78,77,82,83,82,79,80,85,91,95,97,98,91,93,84,80,79,79,73,79,84,88,87,84,79,74,66,66,77,80,81,87,88,77,75,77,,,,,,,,,,,,,,,,,,,,,,,,,,,,,,,,,,,,,,,,,,,,,,,,,,,,,,,,,,,,,,,,,,,,,,,,,,,,,,,,,,,,,,,,,,,,,,,,,,,,,,,,,,,,,,,,,,,,,,,,,,,,,,
doubleTap,2,8,85,85,93,100,89,89,90,82,72,71,59,50,53,47,67,87,94,107,154,164,157,156,152,112,136,188,206,203,206,186,165,190,201,200,197,171,116,108,98,89,92,85,70,78,87,86,92,98,90,81,75,73,64,73,71,78,77,74,61,62,63,67,71,78,77,74,88,94,102,106,104,91,79,87,91,96,99,102,82,77,84,80,80,87,84,65,66,75,85,97,100,99,97,87,72,69,67,65,64,68,84,,,,,,,,,,,,,,,,,,,,,,,,,,,,,,,,,,,,,,,,,,,,,,,,,,,,,,,,,,,,,,,,,,,,,,,,,,,,,,,,,,,,,,,,,,,,,,,,,,,,,,,,,,,,,,,,,,,,,,,,,,,,,,,,,,,,,,,,,,,,,
doubleTap,2,9,89,92,97,93,87,83,82,73,83,81,81,89,108,108,108,132,125,113,106,109,75,69,54,83,79,87,89,95,78,79,79,84,95,91,99,98,98,85,94,90,86,84,90,104,151,233,265,267,262,239,165,114,154,296,329,342,360,351,276,279,276,253,249,208,143,105,100,87,93,92,96,95,94,112,117,115,117,110,91,82,85,82,80,70,74,73,68,76,83,88,85,96,95,96,90,93,81,75,69,63,61,66,97,103,104,102,97,82,78,106,143,153,165,171,179,160,151,133,154,194,215,267,326,318,286,360,344,293,299,302,192,155,158,152,143,131,129,119,99,97,102,110,115,114,114,102,90,78,80,76,110,109,107,105,101,65,62,66,67,70,74,90,86,82,81,80,69,68,76,,,,,,,,,,,,,,,,,,,,,,,,,,,,,,,,,,,,,,,,,,,,,,,,,,,,,,,,,,,,,,,,,,,,,,,,,
fist,3,0,43,39,38,41,40,38,39,40,116,143,150,151,152,107,70,55,53,51,134,164,271,395,446,446,540,614,607,589,582,493,434,448,451,574,636,629,668,691,648,623,627,530,496,432,423,527,525,549,542,535,422,417,435,496,504,461,469,496,471,502,516,527,489,478,446,430,437,392,387,416,405,446,537,562,623,735,738,688,740,652,539,482,468,318,299,254,238,245,225,238,242,218,190,195,164,138,123,102,99,134,128,130,128,125,93,93,87,98,103,97,94,107,94,83,80,,,,,,,,,,,,,,,,,,,,,,,,,,,,,,,,,,,,,,,,,,,,,,,,,,,,,,,,,,,,,,,,,,,,,,,,,,,,,,,,,,,,,,,,,,,,,,,,,,,,,,,,,,,,,,,,,,,,,,,,,,,,,,,
fist,3,1,41,42,40,38,34,30,31,30,31,30,31,32,33,33,34,36,36,36,36,37,33,30,27,27,26,25,28,31,28,37,41,43,48,51,48,64,72,71,78,79,77,76,75,101,111,118,137,145,150,162,170,171,223,220,214,238,266,281,317,418,468,487,524,544,539,577,597,548,532,515,436,473,524,522,477,539,513,550,574,618,632,664,615,627,591,501,413,459,498,546,584,569,508,405,322,256,241,217,206,189,145,174,177,159,167,188,162,157,151,138,105,78,78,116,139,143,151,153,125,103,99,95,105,108,104,102,97,79,92,92,95,89,85,76,72,69,73,71,59,68,,,,,,,,,,,,,,,,,,,,,,,,,,,,,,,,,,,,,,,,,,,,,,,,,,,,,,,,,,,,,,,,,,,,,,,,,,,,,,,,,,,,,,,,,,,,,,,,,,,,,,
fist,3,2,31,32,30,31,35,35,32,35,33,32,32,35,34,37,34,33,33,36,32,34,37,39,36,38,40,36,33,33,33,28,28,30,29,28,30,33,30,31,31,32,30,34,32,32,34,41,42,47,52,49,45,44,39,50,62,63,65,76,67,87,110,128,134,142,153,162,216,235,278,316,327,302,330,366,333,329,361,401,346,388,395,412,378,489,459,452,436,441,360,428,426,511,502,545,514,553,538,541,498,486,443,350,319,369,364,352,331,353,247,221,231,226,162,140,134,119,108,109,106,124,116,141,142,135,118,118,83,66,64,71,75,80,94,94,81,78,79,75,75,76,73,66,46,44,42,,,,,,,,,,,,,,,,,,,,,,,,,,,,,,,,,,,,,,,,,,,,,,,,,,,,,,,,,,,,,,,,,,,,,,,,,,,,,,,,,,,,,,,,,,,,,,,,,
fist,3,3,33,33,33,33,34,31,30,31,32,34,36,37,36,38,33,31,33,37,36,37,42,42,42,44,43,40,37,40,39,42,47,56,58,63,72,73,93,99,100,104,117,110,108,112,121,168,171,172,197,213,203,230,269,283,321,314,300,290,297,297,327,340,329,298,302,278,284,290,304,248,288,280,280,303,330,289,290,328,300,280,268,243,210,234,301,350,368,357,336,262,192,156,118,102,101,98,96,91,91,84,102,107,105,105,103,73,57,61,59,61,66,69,64,73,70,70,58,,,,,,,,,,,,,,,,,,,,,,,,,,,,,,,,,,,,,,,,,,,,,,,,,,,,,,,,,,,,,,,,,,,,,,,,,,,,,,,,,,,,,,,,,,,,,,,,,,,,,,,,,,,,,,,,,,,,,,,,,,,,,
fist,3,4,28,27,24,24,27,29,28,31,30,28,30,30,28,28,30,36,37,40,41,46,43,44,40,42,42,39,39,40,41,52,93,95,96,111,116,92,90,96,80,82,88,91,104,126,133,139,152,164,181,197,200,233,225,228,261,320,295,345,363,341,317,346,314,304,321,322,301,292,275,255,265,309,307,343,343,316,264,251,202,174,148,134,146,128,149,143,149,140,126,133,130,125,126,117,71,72,75,60,77,78,78,73,74,57,107,135,198,247,258,296,302,274,241,247,196,184,177,184,163,164,227,236,229,235,225,167,163,169,163,171,152,166,161,158,150,149,126,119,146,182,192,198,201,186,153,138,123,138,162,161,173,171,162,160,153,144,172,173,163,167,169,156,163,146,151,143,153,123,125,128,130,115,117,116,110,131,125,,,,,,,,,,,,,,,,,,,,,,,,,,,,,,,,,,,,,,,,,,,,,,,,,,,,,,,,,,,,,,,,,
fist,3,5,102,103,96,79,97,108,110,113,117,121,104,102,98,101,85,81,84,85,77,67,53,45,41,38,35,38,46,48,49,49,47,36,35,33,37,36,36,35,34,32,36,38,39,40,41,42,45,44,61,74,81,84,106,103,98,121,148,177,214,228,238,256,242,244,265,259,262,275,252,266,412,436,445,535,567,525,543,583,528,500,578,564,610,628,649,580,593,522,517,487,458,436,393,390,381,350,315,328,307,297,302,293,288,251,246,238,274,268,257,301,298,255,256,268,216,215,217,220,190,172,169,167,142,150,132,116,124,123,179,188,204,206,206,150,140,129,109,100,105,108,109,109,107,103,120,102,103,107,111,90,82,91,86,82,78,97,99,112,117,117,100,98,86,82,,,,,,,,,,,,,,,,,,,,,,,,,,,,,,,,,,,,,,,,,,,,,,,,,,,,,,,,,,,,,,,,,,,,,,,,,,,,,,
fist,3,6,32,32,32,47,57,58,59,60,49,36,35,30,29,30,31,26,33,32,33,35,44,44,43,52,59,63,63,65,65,60,53,54,55,52,48,56,55,58,59,64,65,71,70,76,73,68,79,80,83,104,107,100,108,107,97,95,103,101,126,151,180,187,193,203,189,197,203,223,222,240,236,233,211,200,184,182,167,180,173,160,140,144,211,219,243,273,288,241,267,248,207,190,226,202,204,207,202,161,158,165,163,161,164,149,136,147,192,216,214,221,326,330,343,345,353,261,225,164,165,199,186,185,194,196,178,190,231,222,214,177,188,136,138,164,,,,,,,,,,,,,,,,,,,,,,,,,,,,,,,,,,,,,,,,,,,,,,,,,,,,,,,,,,,,,,,,,,,,,,,,,,,,,,,,,,,,,,,,,,,,,,,,,,,,,,,,,,,,
fist,3,7,94,97,95,112,108,97,96,98,98,88,95,97,109,88,87,76,67,65,69,69,68,68,44,34,34,41,40,38,56,57,53,54,57,39,37,42,40,36,36,37,33,32,30,31,30,30,30,33,32,31,32,32,32,35,34,38,42,44,41,42,43,40,45,56,110,114,115,135,192,190,240,255,257,224,217,163,173,169,185,176,181,162,157,125,129,135,133,129,155,154,141,135,154,153,206,211,209,194,192,132,124,134,163,147,141,146,139,156,156,166,162,158,115,113,107,109,110,103,111,108,106,117,134,127,145,149,145,129,125,100,128,131,124,125,129,102,138,143,143,159,151,,,,,,,,,,,,,,,,,,,,,,,,,,,,,,,,,,,,,,,,,,,,,,,,,,,,,,,,,,,,,,,,,,,,,,,,,,,,,,,,,,,,,,,,,,,,,,,,,,,,,
fist,3,8,81,82,76,56,86,89,89,90,96,65,64,88,93,93,94,91,69,76,81,83,83,81,65,49,42,37,37,36,33,33,36,34,34,34,34,30,35,34,39,60,73,72,73,74,66,70,73,74,77,72,57,54,51,44,45,44,45,47,44,42,43,44,47,53,54,55,58,56,70,74,78,78,77,73,70,93,91,114,149,151,169,201,204,195,204,206,188,181,168,167,155,204,198,197,192,201,155,169,172,172,183,189,181,175,167,134,117,115,114,122,123,104,103,105,102,82,85,118,119,120,127,130,117,118,122,126,126,118,116,157,149,151,142,159,120,123,118,117,101,98,92,88,,,,,,,,,,,,,,,,,,,,,,,,,,,,,,,,,,,,,,,,,,,,,,,,,,,,,,,,,,,,,,,,,,,,,,,,,,,,,,,,,,,,,,,,,,,,,,,,,,,,
fist,3,9,29,30,29,31,32,29,28,32,32,29,31,31,27,27,28,28,31,32,31,33,32,37,37,40,44,46,41,42,40,34,30,32,33,38,42,41,44,42,41,39,42,41,42,47,54,60,73,90,98,154,176,214,222,241,275,278,278,312,325,298,300,287,292,311,322,320,335,319,273,264,304,280,254,299,301,263,285,281,241,207,209,167,177,161,160,136,143,137,152,155,148,152,137,115,104,126,114,112,113,125,110,107,113,124,121,138,149,146,142,167,146,144,154,155,133,148,144,130,126,110,86,83,90,89,86,82,83,,,,,,,,,,,,,,,,,,,,,,,,,,,,,,,,,,,,,,,,,,,,,,,,,,,,,,,,,,,,,,,,,,,,,,,,,,,,,,,,,,,,,,,,,,,,,,,,,,,,,,,,,,,,,,,,,,,
fingersSpread,3,0,38,39,38,35,34,32,28,27,27,26,26,27,26,25,26,26,29,32,49,62,75,249,314,323,355,360,373,341,351,330,365,341,344,332,333,296,227,312,326,328,362,358,275,279,288,240,224,242,436,451,456,464,479,359,338,339,354,315,239,210,196,146,135,148,145,142,128,134,101,99,87,85,57,51,58,69,76,74,69,112,130,129,133,134,101,68,74,67,66,61,57,41,39,38,33,,,,,,,,,,,,,,,,,,,,,,,,,,,,,,,,,,,,,,,,,,,,,,,,,,,,,,,,,,,,,,,,,,,,,,,,,,,,,,,,,,,,,,,,,,,,,,,,,,,,,,,,,,,,,,,,,,,,,,,,,,,,,,,,,,,,,,,,,,,,,,,,,,,
fingersSpread,3,1,30,31,32,32,33,35,34,33,35,32,30,32,32,29,29,29,33,36,39,38,43,51,52,52,57,85,147,259,279,281,294,383,355,405,456,470,394,418,362,354,322,340,306,305,251,259,231,181,189,215,241,234,261,295,276,272,279,261,241,231,213,221,225,221,225,221,203,246,226,234,229,241,207,212,196,194,174,156,140,129,114,113,217,225,233,238,235,127,105,82,85,80,72,72,70,43,33,33,31,32,27,35,37,40,40,43,38,38,,,,,,,,,,,,,,,,,,,,,,,,,,,,,,,,,,,,,,,,,,,,,,,,,,,,,,,,,,,,,,,,,,,,,,,,,,,,,,,,,,,,,,,,,,,,,,,,,,,,,,,,,,,,,,,,,,,,,,,,,,,,,,,,,,,,,,
fingersSpread,3,2,25,29,29,29,31,34,31,32,34,33,32,31,28,30,31,30,31,29,25,23,25,29,37,45,70,73,101,100,115,109,111,180,237,234,265,283,265,223,224,210,209,179,178,193,197,181,183,189,177,146,182,177,168,164,179,149,165,167,167,247,440,602,628,668,852,811,704,716,752,519,487,492,478,437,536,653,717,729,780,774,675,677,673,654,603,602,510,474,374,306,261,251,220,126,124,95,91,86,67,75,86,78,75,72,60,39,37,28,33,35,37,36,35,34,32,31,30,30,28,27,29,30,,,,,,,,,,,,,,,,,,,,,,,,,,,,,,,,,,,,,,,,,,,,,,,,,,,,,,,,,,,,,,,,,,,,,,,,,,,,,,,,,,,,,,,,,,,,,,,,,,,,,,,,,,,,,,,,,,,,,,,,
fingersSpread,3,3,28,30,29,31,30,32,31,33,30,30,31,32,31,35,34,36,33,34,36,37,33,36,36,35,54,65,70,73,74,68,76,74,75,93,93,116,122,137,167,182,168,206,235,212,202,220,228,203,208,227,224,211,281,303,303,325,321,320,378,381,364,439,539,516,514,523,467,294,254,240,215,182,207,209,226,223,229,207,190,177,218,222,225,297,328,319,318,388,347,320,299,288,166,131,103,104,100,94,80,74,47,51,49,42,41,40,34,42,45,46,51,49,45,42,39,33,33,31,31,36,43,43,44,49,43,,,,,,,,,,,,,,,,,,,,,,,,,,,,,,,,,,,,,,,,,,,,,,,,,,,,,,,,,,,,,,,,,,,,,,,,,,,,,,,,,,,,,,,,,,,,,,,,,,,,,,,,,,,,,,,,,,,,,
fingersSpread,3,4,31,33,36,37,36,33,31,31,35,34,34,36,35,30,33,36,36,35,33,32,32,33,31,38,49,48,50,58,62,60,75,118,122,129,146,146,120,126,135,143,140,145,184,292,312,322,326,398,347,348,342,341,244,216,208,215,203,199,212,207,199,219,218,214,183,182,179,163,144,143,144,119,106,98,88,78,77,72,65,64,61,51,49,48,42,38,34,37,31,32,32,34,34,35,34,32,34,32,37,37,37,33,34,26,28,29,30,28,30,28,28,31,31,,,,,,,,,,,,,,,,,,,,,,,,,,,,,,,,,,,,,,,,,,,,,,,,,,,,,,,,,,,,,,,,,,,,,,,,,,,,,,,,,,,,,,,,,,,,,,,,,,,,,,,,,,,,,,,,,,,,,,,,,,,,,,,,,
fingersSpread,3,5,27,26,24,27,27,26,30,32,30,31,31,28,26,27,27,28,27,28,28,28,29,29,32,33,37,42,40,38,40,45,43,60,65,77,78,82,76,92,99,109,111,116,121,157,176,192,219,291,285,314,331,359,334,357,327,334,301,287,304,314,283,378,445,462,452,453,467,393,351,374,406,407,418,475,538,524,497,500,464,381,421,418,426,397,386,372,385,410,412,485,462,427,555,559,509,502,544,369,371,368,367,243,219,167,120,86,66,52,46,46,47,48,50,49,46,47,45,37,38,,,,,,,,,,,,,,,,,,,,,,,,,,,,,,,,,,,,,,,,,,,,,,,,,,,,,,,,,,,,,,,,,,,,,,,,,,,,,,,,,,,,,,,,,,,,,,,,,,,,,,,,,,,,,,,,,,,,,,,,,,,
fingersSpread,3,6,31,32,31,30,30,30,33,31,32,30,31,25,26,24,24,25,27,28,28,30,28,30,30,30,30,30,28,29,29,32,30,29,30,31,36,39,41,42,44,39,39,39,38,40,41,45,45,50,55,77,87,92,102,105,101,112,116,108,108,108,116,123,135,138,146,143,136,147,200,246,264,276,391,455,436,437,521,460,393,398,405,315,362,357,370,383,477,476,508,498,636,575,548,545,613,532,522,537,555,502,446,554,554,518,498,467,311,256,209,173,143,117,84,79,77,66,63,53,41,37,40,38,34,35,42,41,39,40,37,31,29,32,30,30,27,31,31,37,38,41,39,,,,,,,,,,,,,,,,,,,,,,,,,,,,,,,,,,,,,,,,,,,,,,,,,,,,,,,,,,,,,,,,,,,,,,,,,,,,,,,,,,,,,,,,,,,,,,,,,,,,,
fingersSpread,3,7,76,80,81,95,101,113,111,113,114,110,108,197,205,202,209,213,151,157,179,175,168,152,175,152,161,172,175,146,180,195,285,302,376,482,520,486,492,544,481,439,467,477,373,350,345,304,341,330,378,422,413,377,375,311,240,230,179,153,113,111,135,139,130,123,114,83,69,57,56,55,47,48,49,47,45,40,37,35,32,38,44,46,43,46,43,36,34,37,36,35,36,40,37,38,39,38,,,,,,,,,,,,,,,,,,,,,,,,,,,,,,,,,,,,,,,,,,,,,,,,,,,,,,,,,,,,,,,,,,,,,,,,,,,,,,,,,,,,,,,,,,,,,,,,,,,,,,,,,,,,,,,,,,,,,,,,,,,,,,,,,,,,,,,,,,,,,,,,,,
fingersSpread,3,8,45,43,35,35,33,32,37,40,40,41,44,39,38,36,32,31,30,27,30,30,28,29,33,38,37,38,38,35,31,33,33,32,32,36,34,36,44,62,66,69,77,86,79,79,89,88,84,94,98,101,105,116,136,146,144,143,132,122,121,171,169,185,179,185,164,190,189,186,210,238,240,239,246,243,265,252,254,281,291,263,268,268,241,201,164,147,132,110,100,84,75,62,56,53,46,42,46,42,37,39,38,34,38,43,43,49,53,49,49,49,41,36,37,33,30,32,36,39,37,38,,,,,,,,,,,,,,,,,,,,,,,,,,,,,,,,,,,,,,,,,,,,,,,,,,,,,,,,,,,,,,,,,,,,,,,,,,,,,,,,,,,,,,,,,,,,,,,,,,,,,,,,,,,,,,,,,,,,,,,,,,
fingersSpread,3,9,31,30,28,31,34,36,39,40,39,36,35,31,29,28,34,33,36,34,36,31,27,26,28,30,33,33,34,32,34,32,32,33,31,27,26,27,24,24,26,25,25,27,27,24,30,30,30,36,35,36,36,36,30,32,25,25,26,32,33,37,45,50,47,50,48,42,42,59,68,91,95,93,106,124,119,150,166,167,329,441,484,610,653,630,651,651,737,708,716,654,666,579,601,552,606,647,535,589,611,575,543,620,558,554,576,608,525,525,574,649,572,580,604,581,496,495,483,441,442,376,369,356,353,258,217,202,192,168,159,153,122,109,70,66,55,51,68,71,72,73,70,49,40,37,38,38,46,51,51,49,50,42,33,30,30,31,32,37,38,40,38,38,32,,,,,,,,,,,,,,,,,,,,,,,,,,,,,,,,,,,,,,,,,,,,,,,,,,,,,,,,,,,,,,,,,,,,,,,,,,,,,,,
waveOut,3,0,103,125,130,133,161,185,173,172,186,169,146,138,120,111,101,94,93,88,43,43,42,42,45,45,46,45,54,57,73,75,82,85,104,128,128,43,42,142,148,154,155,157,155,160,171,181,175,169,166,151,126,139,149,144,145,153,137,141,252,351,362,359,357,321,234,220,221,217,197,173,194,190,205,185,185,159,168,168,181,193,205,205,218,219,247,264,270,272,313,280,286,281,263,203,236,256,265,258,258,233,165,172,245,270,311,368,379,390,465,555,589,595,585,532,414,404,373,342,326,320,235,274,267,268,260,236,218,212,183,,,,,,,,,,,,,,,,,,,,,,,,,,,,,,,,,,,,,,,,,,,,,,,,,,,,,,,,,,,,,,,,,,,,,,,,,,,,,,,,,,,,,,,,,,,,,,,,,,,,,,,,,,,,,,,,,
waveOut,3,1,124,117,125,121,159,154,167,170,206,182,183,177,186,201,236,241,249,244,222,236,230,220,242,256,205,215,215,215,178,184,165,164,113,102,94,102,115,125,131,131,289,407,452,471,524,465,373,445,443,389,388,402,453,487,494,491,481,402,359,355,356,355,246,360,354,365,429,645,685,795,1034,1126,1073,1083,1019,850,752,690,582,558,443,326,306,358,358,354,375,418,383,414,492,587,590,569,549,513,402,342,362,350,288,242,281,336,379,448,501,522,491,460,407,357,299,257,249,227,199,213,235,234,228,229,207,191,199,191,178,152,141,134,140,144,214,211,206,205,,,,,,,,,,,,,,,,,,,,,,,,,,,,,,,,,,,,,,,,,,,,,,,,,,,,,,,,,,,,,,,,,,,,,,,,,,,,,,,,,,,,,,,,,,,,,,,,,,,,,,,,,,
waveOut,3,2,168,175,180,235,202,202,237,241,191,184,179,179,183,182,186,192,202,191,186,178,169,86,73,101,99,99,99,99,62,55,52,47,68,75,79,84,90,88,96,99,101,112,118,115,111,114,121,111,109,109,113,111,116,117,146,170,188,202,206,202,189,169,164,178,184,178,197,199,193,178,188,169,175,179,177,170,202,191,189,204,201,165,154,144,127,124,120,134,127,122,126,123,131,142,141,136,140,123,113,122,137,137,134,133,123,95,90,83,69,71,75,75,88,98,136,141,140,137,189,168,163,172,182,204,255,269,329,421,427,400,399,376,288,237,237,225,186,144,157,159,164,222,228,207,205,274,,,,,,,,,,,,,,,,,,,,,,,,,,,,,,,,,,,,,,,,,,,,,,,,,,,,,,,,,,,,,,,,,,,,,,,,,,,,,,,,,,,,,,,,,,,,,,,,
waveOut,3,3,142,148,92,85,81,105,124,121,137,139,118,94,93,66,83,85,79,80,80,56,52,52,54,50,71,80,85,90,93,82,82,87,85,109,112,112,125,136,118,122,130,118,106,118,126,123,128,129,127,118,125,117,139,131,141,144,151,135,138,138,128,120,121,126,111,123,121,115,110,115,92,96,99,98,114,125,123,125,143,158,163,168,166,151,117,99,93,113,126,130,141,147,129,113,113,104,102,102,104,100,111,102,103,109,110,94,90,84,73,68,58,63,69,74,75,78,75,77,80,78,75,78,85,113,123,134,130,124,98,94,91,92,90,95,100,94,97,100,97,82,75,70,62,62,64,63,64,71,66,66,68,68,60,60,59,60,,,,,,,,,,,,,,,,,,,,,,,,,,,,,,,,,,,,,,,,,,,,,,,,,,,,,,,,,,,,,,,,,,,,,,,,,,,,,,,,,,,,,,
waveOut,3,4,88,93,96,117,112,100,95,87,57,49,47,46,47,38,42,43,55,59,60,55,54,43,37,37,40,50,51,58,66,67,64,76,90,111,115,120,135,144,138,161,160,148,133,124,100,103,108,110,123,131,130,126,128,134,129,145,158,159,162,166,167,160,175,174,172,160,158,140,133,133,134,143,144,155,163,169,166,166,155,142,133,150,163,171,177,184,165,151,132,122,107,96,83,78,79,71,77,76,78,67,71,73,75,71,74,75,68,69,75,75,70,72,70,60,50,50,41,38,38,41,42,48,49,50,54,53,43,40,40,34,39,40,,,,,,,,,,,,,,,,,,,,,,,,,,,,,,,,,,,,,,,,,,,,,,,,,,,,,,,,,,,,,,,,,,,,,,,,,,,,,,,,,,,,,,,,,,,,,,,,,,,,,,,,,,,,,,
waveOut,3,5,59,59,58,62,62,56,52,52,43,41,41,33,42,44,50,48,51,47,46,41,42,40,36,39,37,44,47,48,46,50,49,52,58,66,72,75,83,83,81,78,87,81,79,83,92,100,108,123,128,134,148,146,143,141,129,111,118,131,136,146,145,166,173,189,193,207,200,189,192,203,203,195,201,190,171,161,170,158,155,158,154,145,145,141,156,152,152,160,164,182,233,236,235,235,216,185,185,184,188,182,157,149,161,155,164,163,165,143,138,130,134,132,131,130,134,126,119,116,127,106,106,101,109,87,93,94,97,85,94,189,235,259,286,304,273,239,219,189,183,190,194,185,192,174,175,170,178,,,,,,,,,,,,,,,,,,,,,,,,,,,,,,,,,,,,,,,,,,,,,,,,,,,,,,,,,,,,,,,,,,,,,,,,,,,,,,,,,,,,,,,,,,,,,,,
waveOut,3,6,126,148,164,166,163,167,160,150,173,192,192,181,172,178,163,154,174,195,172,172,174,161,150,149,144,137,153,159,169,173,186,171,158,161,192,201,207,218,208,184,195,197,176,178,169,136,126,136,140,153,153,150,148,142,140,140,152,155,163,151,147,147,140,126,139,140,127,121,130,128,120,113,118,103,98,103,112,107,108,94,90,82,78,75,73,64,51,53,57,51,53,75,83,78,79,86,71,62,77,89,86,96,97,91,80,76,77,74,67,66,66,68,69,67,65,65,37,31,33,,,,,,,,,,,,,,,,,,,,,,,,,,,,,,,,,,,,,,,,,,,,,,,,,,,,,,,,,,,,,,,,,,,,,,,,,,,,,,,,,,,,,,,,,,,,,,,,,,,,,,,,,,,,,,,,,,,,,,,,,,,
waveOut,3,7,38,42,45,48,45,50,50,47,47,49,53,52,57,55,54,49,49,45,49,48,44,46,45,43,52,57,59,63,66,59,58,57,60,65,89,95,103,103,101,91,99,100,105,106,110,109,111,112,120,129,153,181,190,202,190,179,153,151,145,157,157,150,149,144,149,158,161,165,169,163,153,151,148,158,150,151,146,146,124,126,119,130,123,127,131,129,131,125,130,139,141,169,173,175,168,186,168,211,207,208,191,197,152,177,197,208,194,212,411,606,718,806,857,830,724,687,772,752,714,699,625,375,282,227,187,203,206,215,201,320,349,347,359,368,264,226,201,173,156,172,151,158,150,146,129,126,119,122,123,114,117,110,120,137,138,127,124,136,122,118,119,124,98,86,90,85,87,78,75,67,68,56,56,142,156,208,289,315,309,316,286,218,191,155,132,139,132,116,125,148,143,169,171,165,139,,,,,,,,,,,,,,,,,,,,,,,,,,,,,,,,,,,,,,,,,,,,,,,
waveOut,3,8,42,46,49,65,63,63,62,68,58,61,72,85,82,81,79,71,56,55,50,51,49,46,48,47,46,45,46,46,54,56,62,60,57,55,53,47,53,60,59,59,57,54,54,56,55,64,63,64,62,68,64,71,88,95,96,106,111,98,96,91,86,97,99,113,119,127,126,138,152,152,156,153,149,130,145,135,136,137,136,121,119,117,116,132,149,155,150,153,138,122,131,131,121,139,132,121,133,137,113,132,134,129,131,137,126,128,123,119,109,103,96,84,79,85,79,71,87,92,87,88,96,88,82,79,75,80,77,76,79,80,62,57,63,70,70,69,69,61,55,57,55,54,56,58,55,55,55,58,49,47,57,65,63,61,63,59,54,49,49,51,,,,,,,,,,,,,,,,,,,,,,,,,,,,,,,,,,,,,,,,,,,,,,,,,,,,,,,,,,,,,,,,,,,,,,,,,,,,,,,,,,
waveOut,3,9,73,74,76,73,71,63,67,62,59,62,63,56,52,51,41,38,39,52,50,50,48,48,39,40,47,54,58,63,73,79,88,86,83,77,74,116,159,166,171,174,180,146,146,167,167,130,140,159,133,131,135,143,148,161,163,162,159,137,135,152,158,175,177,177,165,168,158,167,192,200,198,191,189,169,182,200,191,201,195,192,179,206,192,197,185,194,188,201,219,222,219,233,217,201,221,213,205,209,207,212,208,192,196,194,159,163,154,173,173,176,168,168,143,145,166,169,180,173,159,129,156,150,150,163,167,133,118,117,98,88,92,87,84,98,129,127,133,168,181,176,195,215,280,288,281,272,265,191,,,,,,,,,,,,,,,,,,,,,,,,,,,,,,,,,,,,,,,,,,,,,,,,,,,,,,,,,,,,,,,,,,,,,,,,,,,,,,,,,,,,,,,,,,,,,,
waveIn,3,0,693,616,616,653,552,547,530,591,592,561,487,505,531,470,458,525,517,414,373,513,467,591,617,692,707,762,687,782,812,933,1099,1146,1211,1228,1221,1146,1186,1238,1281,1269,1276,1267,1146,1158,1117,1248,1319,1388,1424,1466,1286,1196,1157,1219,1197,1246,1320,1339,1207,1155,1134,1133,1191,1281,1346,1382,1383,1381,1286,1231,1283,1311,1338,1425,1487,1461,1415,1439,1350,1284,1307,1334,1203,1291,1329,1283,1204,1233,1181,1161,1125,1084,1001,869,791,775,794,715,710,707,746,695,708,694,660,492,436,463,497,449,467,548,485,489,460,427,406,461,419,421,408,366,316,313,298,317,,,,,,,,,,,,,,,,,,,,,,,,,,,,,,,,,,,,,,,,,,,,,,,,,,,,,,,,,,,,,,,,,,,,,,,,,,,,,,,,,,,,,,,,,,,,,,,,,,,,,,,,,,,,,,,,,,,,
waveIn,3,1,182,164,154,154,155,185,172,171,171,182,175,187,256,407,476,491,542,623,603,636,737,815,862,886,936,947,970,936,1015,1092,1066,1132,1308,1279,1288,1390,1375,1227,1301,1368,1349,1277,1317,1290,1250,1275,1321,1356,1329,1254,1254,1320,1239,1303,1392,1367,1383,1476,1420,1330,1282,1229,1176,1214,1275,1293,1224,1218,1194,1211,1210,1289,1363,1408,1316,1351,1299,1255,1173,1248,1299,1401,1346,1407,1380,1284,1227,1239,1195,1193,1252,1233,1210,1278,1349,1317,1323,1384,1396,1433,1437,1398,1349,1249,1117,1040,1072,979,1009,991,983,855,857,763,811,943,924,914,984,858,717,719,705,518,583,497,488,541,541,376,360,418,391,386,371,592,679,690,692,699,578,425,363,375,384,307,299,287,351,329,340,429,449,382,480,514,442,,,,,,,,,,,,,,,,,,,,,,,,,,,,,,,,,,,,,,,,,,,,,,,,,,,,,,,,,,,,,,,,,,,,,,,,,,,,,,,,,,,,,
waveIn,3,2,330,326,399,420,361,363,360,280,263,241,246,294,313,332,355,468,501,555,573,770,758,804,833,869,854,861,922,897,921,839,955,1062,1187,1218,1284,1292,1154,1238,1284,1392,1422,1474,1463,1519,1414,1398,1466,1420,1305,1362,1340,1280,1196,1250,1167,1180,1156,1226,1188,1246,1254,1267,1258,1323,1388,1350,1357,1357,1329,1208,1225,1213,1232,1186,1288,1258,1234,1152,1144,1072,1061,1058,1129,1211,1265,1279,1325,1430,1369,1317,1333,1298,1254,1289,1323,1278,1258,1216,1280,1253,1293,1337,1282,1213,1181,1179,1169,1168,1169,1227,1237,1312,1384,1383,1346,1303,1228,1126,1083,1087,1166,1222,1317,1323,1383,1369,1291,1154,1224,1065,932,844,857,649,648,686,740,777,761,706,658,698,595,554,549,521,389,442,441,436,448,409,307,394,393,473,496,495,442,440,361,411,397,374,376,392,311,291,286,329,381,377,375,377,363,294,265,260,274,352,342,338,500,496,422,418,448,,,,,,,,,,,,,,,,,,,,,,,,,,,,,,,,,,,,,,,,,,,,,,,,,,,,,,,
waveIn,3,3,352,420,398,363,347,366,325,303,308,354,353,298,287,299,253,225,291,339,341,329,348,347,325,346,426,428,431,421,396,357,379,358,401,436,458,473,473,532,545,623,632,691,763,919,935,954,974,978,1006,1003,1062,1053,1128,1084,1180,1142,1228,1147,1136,1063,1091,1115,1100,1136,1132,1241,1233,1265,1268,1386,1276,1271,1269,1241,1155,1153,1114,1117,1045,949,951,843,912,1125,1251,1315,1362,1273,1127,1026,1043,1039,1161,1184,1200,1122,1136,1096,1090,1034,1149,1204,1166,1177,1221,1111,1090,1126,1098,1042,1079,1001,920,998,1027,1001,1063,1103,1012,989,1063,1041,1043,1129,1155,1103,1113,1082,1030,1015,971,862,780,629,524,376,367,366,345,299,290,364,350,351,334,328,145,111,87,108,109,112,110,119,140,146,141,147,144,98,79,112,119,128,128,132,106,269,282,286,290,291,148,139,150,141,141,140,,,,,,,,,,,,,,,,,,,,,,,,,,,,,,,,,,,,,,,,,,,,,,,,,,,,,,,,,,,,,,,,
waveIn,3,5,111,166,170,205,202,205,164,179,204,208,208,259,265,227,230,269,229,216,208,193,127,176,206,218,282,305,356,589,717,821,857,851,797,707,668,724,831,829,1089,1161,1159,1124,1143,1109,1049,1087,1114,1152,1156,1277,1300,1320,1333,1227,1193,1152,1143,1169,1249,1165,1308,1331,1300,1331,1414,1339,1284,1210,1248,1165,1088,1217,1317,1188,1257,1300,1238,1206,1272,1243,1235,1194,1159,1142,1202,1135,1160,1220,1148,1100,1105,1083,1041,1092,1044,1100,1064,1017,910,944,851,881,806,814,634,632,500,481,521,536,509,513,510,350,300,360,349,352,337,306,263,337,350,344,341,299,247,233,237,297,290,280,267,290,237,218,188,198,186,188,224,243,256,247,239,,,,,,,,,,,,,,,,,,,,,,,,,,,,,,,,,,,,,,,,,,,,,,,,,,,,,,,,,,,,,,,,,,,,,,,,,,,,,,,,,,,,,,,,,,,,,,,,,
waveIn,3,6,243,197,228,283,346,346,412,483,463,485,494,460,565,613,774,828,876,847,1010,932,988,970,994,891,989,1008,1086,1084,1092,1116,1100,1148,1264,1241,1177,1220,1259,1214,1292,1352,1298,1202,1193,1267,1294,1264,1349,1396,1332,1260,1308,1203,1076,1098,1207,1214,1206,1266,1239,1107,1165,1340,1318,1286,1367,1403,1284,1294,1329,1326,1270,1251,1233,1163,1079,1099,1095,1046,1050,984,854,752,666,569,708,697,688,692,701,550,432,427,412,351,222,203,155,148,285,297,304,321,328,315,314,307,291,281,219,225,230,236,233,186,173,180,179,175,166,145,128,117,121,138,143,139,139,135,85,108,164,167,,,,,,,,,,,,,,,,,,,,,,,,,,,,,,,,,,,,,,,,,,,,,,,,,,,,,,,,,,,,,,,,,,,,,,,,,,,,,,,,,,,,,,,,,,,,,,,,,,,,,,,,,,,,,,
waveIn,3,7,106,121,126,133,160,165,189,202,206,193,195,171,166,213,349,417,477,589,692,726,738,784,865,889,913,1001,1028,985,950,954,1017,1073,1119,1255,1294,1296,1287,1378,1316,1363,1322,1295,1230,1201,1152,1220,1214,1203,1225,1223,1110,1223,1209,1217,1169,1259,1241,1243,1194,1251,1207,1150,1199,1247,1267,1257,1240,1163,1168,1154,1134,1161,1200,1174,1218,1207,1229,1177,1152,1043,1020,1028,1014,979,969,990,846,881,858,774,754,837,798,781,766,689,589,492,458,468,449,329,250,227,177,152,124,85,76,73,61,87,91,91,90,99,106,180,188,193,196,216,172,170,162,156,103,100,85,85,81,83,,,,,,,,,,,,,,,,,,,,,,,,,,,,,,,,,,,,,,,,,,,,,,,,,,,,,,,,,,,,,,,,,,,,,,,,,,,,,,,,,,,,,,,,,,,,,,,,,,,,,,,,,,,,,,
waveIn,3,8,92,89,99,102,112,125,132,125,158,196,236,246,259,254,253,267,308,420,499,636,678,765,818,866,1007,1064,1169,1164,1288,1246,1301,1264,1332,1274,1299,1359,1510,1472,1442,1396,1317,1100,1144,1278,1276,1311,1330,1271,1245,1207,1116,1160,1297,1282,1310,1384,1422,1327,1265,1313,1313,1320,1438,1418,1458,1460,1392,1348,1393,1302,1226,1214,1126,1053,1095,1204,1265,1306,1307,1374,1345,1302,1266,1286,1257,1216,1225,1211,1202,1127,1118,1050,1049,1060,990,1001,953,909,847,880,768,733,675,695,709,684,681,796,851,757,747,752,645,455,431,428,409,312,277,326,315,307,304,262,196,186,180,305,409,406,407,419,422,309,305,304,310,254,248,244,241,211,203,200,198,201,213,132,270,,,,,,,,,,,,,,,,,,,,,,,,,,,,,,,,,,,,,,,,,,,,,,,,,,,,,,,,,,,,,,,,,,,,,,,,,,,,,,,,,,,,,,,,,,,,,
waveIn,3,9,120,121,100,103,116,192,198,200,201,196,143,218,254,282,286,273,267,416,411,453,506,558,565,607,611,601,709,698,679,788,873,776,774,863,834,893,989,1017,1108,1087,1153,1235,1353,1298,1439,1400,1360,1326,1337,1256,1278,1301,1267,1290,1322,1244,1220,1194,1241,1213,1281,1219,1198,1140,1131,1045,1094,1162,1198,1246,1281,1251,1245,1278,1240,1219,1307,1303,1255,1293,1317,1311,1257,1237,1196,1149,990,981,933,854,899,967,947,863,812,700,664,604,629,582,620,528,531,496,486,380,491,462,427,425,415,321,464,489,491,489,528,427,392,383,415,384,358,366,366,331,181,179,185,231,265,262,257,246,244,,,,,,,,,,,,,,,,,,,,,,,,,,,,,,,,,,,,,,,,,,,,,,,,,,,,,,,,,,,,,,,,,,,,,,,,,,,,,,,,,,,,,,,,,,,,,,,,,,,,,,,,,,,
doubleTap,3,0,156,144,145,134,138,139,151,146,146,136,134,118,122,124,152,171,201,206,207,240,226,200,209,213,153,185,208,203,247,350,377,393,479,501,466,482,470,377,462,625,664,671,696,662,495,399,392,355,245,220,193,171,316,324,340,345,337,227,238,210,211,242,217,189,198,204,172,160,153,143,158,164,169,173,169,158,179,178,179,181,173,151,139,131,129,124,107,155,157,154,134,134,128,140,157,164,159,121,124,139,165,,,,,,,,,,,,,,,,,,,,,,,,,,,,,,,,,,,,,,,,,,,,,,,,,,,,,,,,,,,,,,,,,,,,,,,,,,,,,,,,,,,,,,,,,,,,,,,,,,,,,,,,,,,,,,,,,,,,,,,,,,,,,,,,,,,,,,,,,,,,,
doubleTap,3,1,161,149,140,123,143,148,146,149,151,123,123,129,119,124,123,109,121,123,129,120,113,101,104,133,148,165,160,201,306,349,577,600,599,560,544,311,280,451,577,609,629,643,572,449,398,347,320,315,296,303,303,292,206,193,158,166,218,208,199,204,195,124,127,127,128,172,188,183,184,193,178,168,169,167,145,106,117,119,153,157,161,149,156,177,184,177,175,158,123,125,134,133,137,107,147,146,145,,,,,,,,,,,,,,,,,,,,,,,,,,,,,,,,,,,,,,,,,,,,,,,,,,,,,,,,,,,,,,,,,,,,,,,,,,,,,,,,,,,,,,,,,,,,,,,,,,,,,,,,,,,,,,,,,,,,,,,,,,,,,,,,,,,,,,,,,,,,,,,,,
doubleTap,3,2,161,160,132,205,197,205,210,214,179,183,166,187,208,185,189,188,163,128,157,178,185,186,185,161,146,146,137,137,129,112,169,190,200,257,273,314,484,545,545,552,523,422,388,405,413,533,567,572,615,613,526,454,410,310,295,269,311,351,326,316,299,281,231,232,216,216,182,181,190,186,208,212,198,185,204,201,185,193,192,183,194,176,170,167,153,181,178,175,179,208,192,188,199,200,174,140,166,165,162,157,172,172,169,168,170,159,142,136,165,205,234,233,232,261,328,412,416,448,467,449,375,404,515,627,638,630,644,580,462,406,410,381,368,308,301,291,245,236,240,273,300,331,279,269,272,249,223,244,246,215,193,192,171,179,200,226,220,201,201,184,150,150,154,143,156,158,146,141,147,104,95,120,131,129,141,,,,,,,,,,,,,,,,,,,,,,,,,,,,,,,,,,,,,,,,,,,,,,,,,,,,,,,,,,,,,,,,,,,
doubleTap,3,3,186,195,171,183,181,174,157,150,143,147,146,151,170,200,205,211,207,169,160,183,186,194,192,192,174,165,155,164,186,186,185,184,176,103,166,207,239,243,293,358,463,515,599,591,546,488,424,301,363,521,581,629,657,622,486,362,261,166,204,290,297,300,299,245,126,102,86,86,148,176,177,175,175,131,145,150,154,156,153,100,189,225,229,230,252,191,157,158,160,149,148,137,137,146,127,,,,,,,,,,,,,,,,,,,,,,,,,,,,,,,,,,,,,,,,,,,,,,,,,,,,,,,,,,,,,,,,,,,,,,,,,,,,,,,,,,,,,,,,,,,,,,,,,,,,,,,,,,,,,,,,,,,,,,,,,,,,,,,,,,,,,,,,,,,,,,,,,,,
doubleTap,3,4,144,143,157,163,185,210,200,165,190,170,173,221,250,242,335,419,568,595,630,600,566,424,394,336,485,510,675,684,702,634,642,450,451,443,496,436,432,401,371,222,189,212,272,276,265,274,252,205,197,209,203,193,170,168,155,194,230,223,223,215,183,149,157,155,154,,,,,,,,,,,,,,,,,,,,,,,,,,,,,,,,,,,,,,,,,,,,,,,,,,,,,,,,,,,,,,,,,,,,,,,,,,,,,,,,,,,,,,,,,,,,,,,,,,,,,,,,,,,,,,,,,,,,,,,,,,,,,,,,,,,,,,,,,,,,,,,,,,,,,,,,,,,,,,,,,,,,,,,,,,,,,,,,,
doubleTap,3,5,120,151,160,161,161,182,190,191,175,179,199,283,309,327,363,485,576,584,592,601,535,385,374,375,517,656,701,737,737,723,592,554,499,504,407,418,398,398,405,358,290,270,247,179,120,190,216,212,208,205,160,117,124,132,131,114,198,199,203,207,203,134,125,117,110,112,98,95,90,96,93,102,109,100,152,,,,,,,,,,,,,,,,,,,,,,,,,,,,,,,,,,,,,,,,,,,,,,,,,,,,,,,,,,,,,,,,,,,,,,,,,,,,,,,,,,,,,,,,,,,,,,,,,,,,,,,,,,,,,,,,,,,,,,,,,,,,,,,,,,,,,,,,,,,,,,,,,,,,,,,,,,,,,,,,,,,,,,,
doubleTap,3,6,76,72,72,82,86,85,95,93,98,98,102,95,115,109,153,209,245,288,294,293,280,298,259,391,506,660,652,677,624,549,432,435,458,693,814,796,793,771,608,423,373,373,356,332,315,301,347,344,280,292,296,226,208,188,156,162,156,154,149,173,160,167,189,230,211,214,213,208,169,197,264,261,278,308,317,268,267,400,432,594,701,722,661,642,541,400,388,649,711,670,686,674,451,463,465,431,429,407,300,288,309,344,335,274,391,379,341,326,331,226,226,221,216,230,181,213,216,246,233,233,203,209,165,143,142,279,277,284,291,438,368,370,371,369,238,243,241,280,415,425,477,538,523,436,435,378,284,266,361,468,647,663,671,632,534,308,273,253,225,352,365,364,365,365,259,211,243,248,275,270,266,242,299,271,244,254,249,176,181,175,165,156,145,122,167,165,159,158,172,205,211,215,215,204,215,261,269,270,271,269,223,233,372,436,437,444,445,345,330,312,332,388,451,594,634,660,656,629,507,448,405,349,409,548,602,603,690,674,557,504,609,511,552,527,513,373,369,277,271,302,291,
doubleTap,3,7,115,129,126,128,149,143,142,161,184,183,184,258,262,276,265,260,180,199,144,144,165,225,218,231,320,399,428,449,510,489,455,410,405,316,487,588,674,680,689,573,443,305,246,251,220,287,272,280,259,262,166,172,154,140,136,151,174,173,201,208,212,186,189,194,199,210,217,215,210,202,173,183,227,213,206,205,204,158,165,163,,,,,,,,,,,,,,,,,,,,,,,,,,,,,,,,,,,,,,,,,,,,,,,,,,,,,,,,,,,,,,,,,,,,,,,,,,,,,,,,,,,,,,,,,,,,,,,,,,,,,,,,,,,,,,,,,,,,,,,,,,,,,,,,,,,,,,,,,,,,,,,,,,,,,,,,,,,,,,,,,,
doubleTap,3,8,67,74,80,69,62,68,64,84,82,90,93,95,76,140,202,298,439,613,620,617,587,515,298,432,576,716,835,850,794,700,587,378,341,334,522,542,553,574,592,461,398,383,366,305,335,317,318,304,302,177,202,240,340,345,344,348,309,177,222,246,241,248,254,212,202,192,198,231,235,230,239,255,293,300,302,304,316,337,388,425,440,472,459,480,525,527,,,,,,,,,,,,,,,,,,,,,,,,,,,,,,,,,,,,,,,,,,,,,,,,,,,,,,,,,,,,,,,,,,,,,,,,,,,,,,,,,,,,,,,,,,,,,,,,,,,,,,,,,,,,,,,,,,,,,,,,,,,,,,,,,,,,,,,,,,,,,,,,,,,,,,,,,,,,
doubleTap,3,9,151,159,157,168,165,152,145,151,174,149,153,181,188,164,186,188,159,142,211,208,205,222,293,322,357,367,387,380,335,304,420,530,679,811,883,860,791,675,506,361,375,610,624,625,630,599,364,309,299,322,409,401,448,450,432,353,341,246,270,249,193,216,270,272,278,312,304,262,232,329,303,292,283,281,166,154,158,161,159,149,148,148,150,145,153,187,194,186,,,,,,,,,,,,,,,,,,,,,,,,,,,,,,,,,,,,,,,,,,,,,,,,,,,,,,,,,,,,,,,,,,,,,,,,,,,,,,,,,,,,,,,,,,,,,,,,,,,,,,,,,,,,,,,,,,,,,,,,,,,,,,,,,,,,,,,,,,,,,,,,,,,,,,,,,,
fist,4,0,54,56,57,83,80,83,92,94,83,88,93,84,97,85,86,79,79,67,77,69,70,92,91,82,90,107,92,88,89,95,83,78,78,78,69,57,68,70,68,61,78,80,83,83,83,67,68,65,66,67,71,60,72,71,69,65,61,72,82,92,95,103,95,107,107,115,125,143,195,248,267,342,366,359,341,338,267,230,230,220,235,234,249,277,290,318,319,354,475,521,504,579,745,665,622,679,673,453,436,441,337,197,198,197,173,155,150,117,97,103,83,91,99,133,129,133,133,148,134,135,142,135,123,111,114,103,101,93,91,82,95,93,91,108,118,,,,,,,,,,,,,,,,,,,,,,,,,,,,,,,,,,,,,,,,,,,,,,,,,,,,,,,,,,,,,,,,,,,,,,,,,,,,,,,,,,,,,,,,,,,,,,,,,,,,,,,,,,,
fist,4,1,87,86,97,117,116,118,133,127,125,153,167,158,158,151,121,108,123,113,148,171,183,175,191,157,135,113,154,141,170,190,285,298,313,305,309,234,232,232,250,300,302,310,305,320,265,291,274,289,287,323,327,322,341,356,331,329,412,379,347,381,383,372,433,488,463,458,395,333,242,222,192,169,194,178,180,167,174,115,107,92,83,85,106,133,144,145,138,128,105,93,94,,,,,,,,,,,,,,,,,,,,,,,,,,,,,,,,,,,,,,,,,,,,,,,,,,,,,,,,,,,,,,,,,,,,,,,,,,,,,,,,,,,,,,,,,,,,,,,,,,,,,,,,,,,,,,,,,,,,,,,,,,,,,,,,,,,,,,,,,,,,,,,,,,,,,,,
fist,4,2,57,62,63,64,67,61,67,72,72,60,62,67,69,86,86,88,89,87,71,72,64,77,84,89,90,96,78,74,82,86,84,87,87,76,78,77,81,78,79,79,79,76,78,83,84,90,83,82,85,84,80,80,79,69,69,70,74,71,72,66,68,65,64,69,69,61,64,82,76,74,72,84,67,73,75,84,87,93,90,91,87,68,67,67,80,85,87,136,138,135,162,186,169,185,185,178,160,167,169,210,287,373,414,530,558,570,572,602,550,566,544,510,507,485,473,459,476,438,417,379,390,401,394,401,388,384,477,498,496,501,477,328,252,219,178,171,138,106,73,70,72,82,73,71,68,67,49,65,69,70,73,93,81,77,74,69,49,63,63,,,,,,,,,,,,,,,,,,,,,,,,,,,,,,,,,,,,,,,,,,,,,,,,,,,,,,,,,,,,,,,,,,,,,,,,,,,,,,,,,,,
fist,4,3,75,78,80,74,63,75,79,78,78,76,58,63,61,63,65,67,69,69,72,70,80,73,85,86,88,88,100,89,96,97,92,77,78,65,66,64,79,82,83,87,106,151,205,255,302,407,511,507,521,508,453,365,373,343,431,435,460,452,455,379,366,339,399,397,409,426,433,408,501,528,562,612,842,956,972,975,959,868,745,746,800,880,889,899,912,963,878,825,976,979,879,901,906,933,892,880,903,880,594,567,538,463,704,793,955,1021,1146,1043,986,829,738,466,252,149,110,98,83,69,69,66,70,77,82,84,84,,,,,,,,,,,,,,,,,,,,,,,,,,,,,,,,,,,,,,,,,,,,,,,,,,,,,,,,,,,,,,,,,,,,,,,,,,,,,,,,,,,,,,,,,,,,,,,,,,,,,,,,,,,,,,,,,,,,,
fist,4,4,66,61,52,59,57,53,53,51,44,51,49,47,47,53,51,55,57,59,53,57,52,49,44,48,46,50,52,52,59,61,112,134,138,142,142,57,52,195,181,175,216,253,334,336,352,333,355,254,256,260,270,260,263,284,307,327,312,342,396,371,360,401,542,532,529,622,677,583,586,588,700,659,658,658,737,544,505,532,553,541,571,716,768,758,791,1143,1163,1137,1132,1187,905,849,844,847,675,581,452,376,336,392,422,476,489,745,891,1057,1033,1044,869,691,343,318,233,227,172,144,120,104,116,103,89,84,101,130,132,161,,,,,,,,,,,,,,,,,,,,,,,,,,,,,,,,,,,,,,,,,,,,,,,,,,,,,,,,,,,,,,,,,,,,,,,,,,,,,,,,,,,,,,,,,,,,,,,,,,,,,,,,,,,,,,,,,,,,
fist,4,5,46,45,46,47,51,51,54,53,56,51,50,47,49,59,67,68,71,67,58,53,48,40,41,43,58,69,87,104,106,105,110,140,153,210,250,259,249,244,217,204,234,236,268,294,320,324,343,343,331,318,298,334,318,315,346,441,429,445,543,596,691,765,862,883,863,754,693,619,606,582,568,621,656,587,596,709,664,571,764,783,699,820,879,697,681,664,606,609,827,812,826,737,660,332,290,225,173,149,136,107,94,109,106,120,133,137,126,116,,,,,,,,,,,,,,,,,,,,,,,,,,,,,,,,,,,,,,,,,,,,,,,,,,,,,,,,,,,,,,,,,,,,,,,,,,,,,,,,,,,,,,,,,,,,,,,,,,,,,,,,,,,,,,,,,,,,,,,,,,,,,,,,,,,,,,
fist,4,6,51,51,55,50,47,50,52,44,51,51,50,47,49,43,45,40,60,79,85,92,101,107,125,147,149,152,150,174,173,206,219,223,209,216,201,230,284,302,305,300,298,280,299,310,330,343,341,358,360,350,347,349,303,292,284,261,283,332,343,374,374,343,313,399,405,412,519,595,542,515,499,374,179,137,120,100,101,108,69,96,111,122,122,126,107,94,72,65,72,86,88,128,140,142,145,150,122,114,114,102,100,97,101,94,,,,,,,,,,,,,,,,,,,,,,,,,,,,,,,,,,,,,,,,,,,,,,,,,,,,,,,,,,,,,,,,,,,,,,,,,,,,,,,,,,,,,,,,,,,,,,,,,,,,,,,,,,,,,,,,,,,,,,,,,,,,,,,,,,,,,,,,,,
fist,4,7,55,56,51,45,42,41,35,40,44,49,47,48,44,39,31,33,36,38,44,43,51,56,60,63,72,74,72,83,88,91,105,140,200,226,236,246,240,235,221,238,294,341,355,382,407,386,366,333,346,356,346,421,428,408,387,425,357,365,352,392,393,378,372,378,306,260,288,360,365,416,419,412,330,314,242,196,127,127,104,93,85,83,86,84,95,91,93,94,93,82,83,78,72,72,70,70,67,69,,,,,,,,,,,,,,,,,,,,,,,,,,,,,,,,,,,,,,,,,,,,,,,,,,,,,,,,,,,,,,,,,,,,,,,,,,,,,,,,,,,,,,,,,,,,,,,,,,,,,,,,,,,,,,,,,,,,,,,,,,,,,,,,,,,,,,,,,,,,,,,,
fist,4,8,59,57,65,63,60,61,66,66,65,70,67,65,53,48,55,67,64,63,61,55,49,54,58,59,54,48,52,50,53,56,58,71,75,78,88,95,96,100,105,100,94,87,97,95,106,109,121,123,236,250,275,289,338,314,319,345,344,314,297,320,295,310,328,317,307,369,390,403,425,429,395,360,335,338,344,310,330,331,375,374,414,428,435,365,336,291,254,210,204,186,155,117,100,99,100,101,82,65,60,60,51,61,64,64,65,64,59,57,65,62,,,,,,,,,,,,,,,,,,,,,,,,,,,,,,,,,,,,,,,,,,,,,,,,,,,,,,,,,,,,,,,,,,,,,,,,,,,,,,,,,,,,,,,,,,,,,,,,,,,,,,,,,,,,,,,,,,,,,,,,,,,,,,,,,,,,
fist,4,9,54,58,72,72,72,77,75,66,57,58,47,45,51,53,55,52,52,42,43,59,66,68,70,69,63,70,70,75,81,78,84,98,113,141,163,161,165,162,152,139,142,134,154,181,188,201,225,235,228,234,250,267,300,356,439,444,455,467,451,376,399,420,372,365,419,389,397,451,439,390,430,384,341,352,466,485,473,459,439,302,177,163,150,128,99,116,123,114,117,117,83,82,91,86,88,88,84,73,81,86,91,87,87,76,79,65,68,84,,,,,,,,,,,,,,,,,,,,,,,,,,,,,,,,,,,,,,,,,,,,,,,,,,,,,,,,,,,,,,,,,,,,,,,,,,,,,,,,,,,,,,,,,,,,,,,,,,,,,,,,,,,,,,,,,,,,,,,,,,,,,,,,,,,,,,
fingersSpread,4,0,81,84,67,81,87,86,83,79,73,67,76,75,77,66,69,91,92,88,90,89,63,69,69,73,71,66,62,60,62,63,66,63,66,64,67,69,69,76,75,91,109,113,120,125,121,115,113,105,99,90,90,95,90,88,87,70,62,67,69,74,74,76,78,91,88,100,98,111,108,110,98,109,94,87,93,97,82,77,78,70,66,70,75,66,63,66,63,55,63,70,64,66,73,65,,,,,,,,,,,,,,,,,,,,,,,,,,,,,,,,,,,,,,,,,,,,,,,,,,,,,,,,,,,,,,,,,,,,,,,,,,,,,,,,,,,,,,,,,,,,,,,,,,,,,,,,,,,,,,,,,,,,,,,,,,,,,,,,,,,,,,,,,,,,,,,,,,,,
fingersSpread,4,1,39,42,48,61,63,62,61,69,65,68,70,75,67,63,55,56,53,63,80,80,93,103,98,89,92,87,92,91,89,88,88,84,106,107,112,118,120,112,127,131,136,138,135,125,119,110,102,104,101,97,95,96,89,83,105,102,112,117,126,109,104,95,90,83,86,93,85,80,79,89,95,98,105,106,104,98,101,99,100,90,94,90,80,79,77,68,66,71,64,66,64,65,74,81,83,85,85,79,72,69,71,75,,,,,,,,,,,,,,,,,,,,,,,,,,,,,,,,,,,,,,,,,,,,,,,,,,,,,,,,,,,,,,,,,,,,,,,,,,,,,,,,,,,,,,,,,,,,,,,,,,,,,,,,,,,,,,,,,,,,,,,,,,,,,,,,,,,,,,,,,,,,
fingersSpread,4,2,39,43,46,53,64,79,82,81,77,74,55,49,60,66,64,72,74,65,58,53,43,49,56,57,66,67,58,51,57,72,75,76,77,73,49,47,47,48,48,51,56,60,64,63,59,53,50,47,68,80,87,87,94,84,79,75,77,67,73,98,100,120,128,137,128,133,125,134,126,122,129,120,99,92,94,84,91,114,121,133,140,149,138,138,121,104,86,86,100,101,109,111,105,88,82,77,76,74,68,71,71,92,94,108,114,120,108,109,94,84,72,67,60,59,61,58,63,64,68,82,91,90,93,99,126,134,129,,,,,,,,,,,,,,,,,,,,,,,,,,,,,,,,,,,,,,,,,,,,,,,,,,,,,,,,,,,,,,,,,,,,,,,,,,,,,,,,,,,,,,,,,,,,,,,,,,,,,,,,,,,,,,,,,,,
fingersSpread,4,3,62,61,50,38,44,46,44,46,47,40,40,43,46,47,49,52,52,44,37,37,45,47,48,55,56,49,47,48,43,38,40,50,69,76,80,80,75,61,53,58,61,61,59,64,61,71,71,74,71,66,64,70,74,76,87,85,85,84,84,92,105,117,128,135,125,118,113,121,125,130,127,122,114,106,104,104,112,108,105,98,97,81,63,62,65,65,74,82,95,105,101,97,123,139,136,140,148,126,98,94,91,74,67,59,60,57,68,76,83,82,83,80,73,64,66,65,60,80,104,101,119,124,,,,,,,,,,,,,,,,,,,,,,,,,,,,,,,,,,,,,,,,,,,,,,,,,,,,,,,,,,,,,,,,,,,,,,,,,,,,,,,,,,,,,,,,,,,,,,,,,,,,,,,,,,,,,,,,,,,,,,,,
fingersSpread,4,4,56,57,55,48,56,64,62,59,62,52,40,42,41,36,40,41,42,42,41,37,33,33,32,36,40,53,54,54,54,59,54,53,73,79,85,83,88,77,71,67,72,80,89,93,87,98,92,88,104,116,117,126,145,135,130,134,132,108,109,116,115,112,118,128,121,119,127,123,120,142,143,137,141,145,130,134,144,145,135,129,136,125,121,118,116,94,85,78,72,75,65,62,57,56,40,47,63,68,67,70,68,57,56,60,60,51,59,71,72,71,,,,,,,,,,,,,,,,,,,,,,,,,,,,,,,,,,,,,,,,,,,,,,,,,,,,,,,,,,,,,,,,,,,,,,,,,,,,,,,,,,,,,,,,,,,,,,,,,,,,,,,,,,,,,,,,,,,,,,,,,,,,,,,,,,,,
fingersSpread,4,5,37,38,67,70,70,71,72,49,65,68,71,71,71,52,47,61,59,58,59,58,55,58,59,60,73,77,78,79,77,65,54,62,66,70,71,67,56,57,53,56,55,53,50,52,48,54,58,64,67,69,69,70,66,69,68,68,74,84,88,97,100,110,107,98,105,110,104,108,116,112,106,125,119,111,101,99,78,75,88,89,93,85,86,75,82,83,76,73,72,68,67,69,76,79,97,92,89,101,101,82,86,91,74,69,76,72,68,64,66,55,58,69,79,86,88,95,90,92,94,97,,,,,,,,,,,,,,,,,,,,,,,,,,,,,,,,,,,,,,,,,,,,,,,,,,,,,,,,,,,,,,,,,,,,,,,,,,,,,,,,,,,,,,,,,,,,,,,,,,,,,,,,,,,,,,,,,,,,,,,,,,
fingersSpread,4,6,58,77,82,77,76,79,73,78,76,76,75,71,76,81,82,88,82,74,69,73,70,69,85,89,84,79,78,53,46,60,72,72,73,82,79,70,73,79,75,70,69,69,65,69,68,78,80,86,89,115,135,139,140,140,121,107,105,110,117,123,118,128,127,119,119,118,105,93,90,90,84,91,97,104,104,107,106,103,93,87,79,70,73,85,86,84,87,88,75,68,67,67,58,67,71,81,80,80,73,73,83,78,73,76,73,57,60,64,61,56,56,56,54,54,54,52,62,65,67,71,81,72,84,84,83,74,82,67,65,64,59,50,61,64,75,,,,,,,,,,,,,,,,,,,,,,,,,,,,,,,,,,,,,,,,,,,,,,,,,,,,,,,,,,,,,,,,,,,,,,,,,,,,,,,,,,,,,,,,,,,,,,,,,,,,,,,,,,,
fingersSpread,4,7,80,81,71,66,63,68,67,66,70,63,74,75,73,79,77,60,68,68,57,63,60,47,57,68,66,67,73,65,63,60,64,70,72,63,70,70,81,85,91,87,90,85,88,92,94,91,86,80,82,91,108,110,115,124,120,116,116,123,116,125,117,124,114,117,111,116,109,113,109,104,106,101,101,117,129,125,125,130,128,125,123,124,112,91,79,72,73,71,73,73,75,81,80,73,80,82,71,70,76,76,83,101,101,114,111,108,,,,,,,,,,,,,,,,,,,,,,,,,,,,,,,,,,,,,,,,,,,,,,,,,,,,,,,,,,,,,,,,,,,,,,,,,,,,,,,,,,,,,,,,,,,,,,,,,,,,,,,,,,,,,,,,,,,,,,,,,,,,,,,,,,,,,,,,
fingersSpread,4,8,47,59,64,65,80,84,84,81,84,72,70,68,67,66,77,85,83,87,85,75,69,63,53,52,55,69,73,76,74,75,69,67,65,64,60,42,42,52,55,64,64,73,73,76,75,80,83,82,79,73,70,60,59,59,62,58,70,76,76,74,80,68,56,55,57,49,65,77,80,80,112,139,139,143,143,130,93,90,106,111,103,109,107,86,82,83,85,100,103,108,119,132,130,125,125,111,101,102,121,121,124,115,105,86,87,85,82,75,77,65,64,56,63,76,83,85,87,91,78,70,63,70,64,62,69,81,91,93,94,96,111,113,118,117,113,91,72,60,,,,,,,,,,,,,,,,,,,,,,,,,,,,,,,,,,,,,,,,,,,,,,,,,,,,,,,,,,,,,,,,,,,,,,,,,,,,,,,,,,,,,,,,,,,,,,,,,,,,,,,,
fingersSpread,4,9,58,61,66,71,76,68,79,80,78,71,71,57,50,45,58,59,67,64,63,51,52,48,56,53,51,54,61,58,58,65,65,66,67,79,77,71,65,67,57,59,68,66,74,73,69,72,74,71,83,94,104,123,122,115,111,105,113,112,121,125,131,112,115,110,113,112,107,104,115,104,99,124,125,113,112,107,77,90,93,100,97,102,87,95,140,154,149,147,141,95,84,87,104,107,103,96,98,98,89,90,86,85,75,72,75,79,73,64,67,66,72,78,78,86,89,,,,,,,,,,,,,,,,,,,,,,,,,,,,,,,,,,,,,,,,,,,,,,,,,,,,,,,,,,,,,,,,,,,,,,,,,,,,,,,,,,,,,,,,,,,,,,,,,,,,,,,,,,,,,,,,,,,,,,,,,,,,,,,
waveOut,4,0,46,64,69,73,72,71,74,80,87,86,93,80,74,65,72,67,65,57,55,56,52,52,62,69,72,77,86,101,114,119,119,67,65,130,133,129,128,145,139,136,130,165,160,190,199,206,186,188,192,202,203,195,183,148,141,141,144,154,158,145,135,130,131,119,119,116,106,92,93,85,78,77,159,223,244,245,246,131,119,119,198,119,61,66,60,56,57,82,75,77,95,96,74,75,73,49,40,68,,,,,,,,,,,,,,,,,,,,,,,,,,,,,,,,,,,,,,,,,,,,,,,,,,,,,,,,,,,,,,,,,,,,,,,,,,,,,,,,,,,,,,,,,,,,,,,,,,,,,,,,,,,,,,,,,,,,,,,,,,,,,,,,,,,,,,,,,,,,,,,,
waveOut,4,1,66,60,50,47,57,64,64,63,66,56,47,48,54,51,51,52,52,46,46,47,52,52,49,51,52,53,57,68,74,76,84,88,81,89,97,98,105,116,146,175,184,195,213,216,195,228,235,230,211,236,219,219,218,228,206,186,169,161,157,155,191,200,193,180,176,132,118,115,115,109,98,95,103,121,120,123,140,165,193,206,211,193,174,124,104,103,113,113,126,121,108,94,87,69,71,,,,,,,,,,,,,,,,,,,,,,,,,,,,,,,,,,,,,,,,,,,,,,,,,,,,,,,,,,,,,,,,,,,,,,,,,,,,,,,,,,,,,,,,,,,,,,,,,,,,,,,,,,,,,,,,,,,,,,,,,,,,,,,,,,,,,,,,,,,,,,,,,,,
waveOut,4,2,54,61,63,58,61,73,81,81,81,79,66,57,67,73,72,89,89,78,73,84,67,64,68,70,58,53,52,47,42,52,61,59,60,78,84,77,82,83,83,78,81,78,80,80,81,81,87,87,83,106,114,123,138,152,143,144,160,147,152,186,237,234,235,222,201,146,132,138,144,132,116,108,110,103,108,121,120,112,106,100,83,81,74,75,59,52,61,63,59,89,121,122,122,134,130,104,96,98,89,76,84,91,88,89,83,74,63,68,64,78,103,113,115,118,109,120,133,130,145,155,136,116,,,,,,,,,,,,,,,,,,,,,,,,,,,,,,,,,,,,,,,,,,,,,,,,,,,,,,,,,,,,,,,,,,,,,,,,,,,,,,,,,,,,,,,,,,,,,,,,,,,,,,,,,,,,,,,,,,,,,,,,
waveOut,4,3,49,49,48,66,62,68,66,68,67,70,69,69,80,77,72,69,79,71,67,64,68,72,68,67,77,81,71,75,77,68,75,72,72,71,71,60,60,52,47,50,67,71,82,82,82,74,73,75,82,86,93,99,97,98,101,126,143,194,211,216,238,238,218,209,215,193,233,228,248,253,309,332,355,378,374,339,281,246,228,277,290,348,357,336,293,255,176,204,204,220,294,387,471,506,499,463,404,286,208,208,198,148,101,97,98,88,97,100,90,77,81,70,61,68,68,66,72,77,73,73,75,73,78,,,,,,,,,,,,,,,,,,,,,,,,,,,,,,,,,,,,,,,,,,,,,,,,,,,,,,,,,,,,,,,,,,,,,,,,,,,,,,,,,,,,,,,,,,,,,,,,,,,,,,,,,,,,,,,,,,,,,,,
waveOut,4,4,75,72,80,73,71,79,90,89,87,88,76,64,63,65,62,67,86,86,87,88,86,72,66,60,71,80,86,92,99,93,85,74,77,75,77,93,103,104,105,116,114,117,130,136,143,158,215,256,292,301,307,284,262,228,215,200,177,156,154,153,156,158,145,133,131,118,118,110,111,111,105,102,103,102,104,125,124,121,117,100,76,83,93,88,114,138,135,131,134,113,82,77,82,81,89,87,119,130,131,122,120,89,70,70,80,89,,,,,,,,,,,,,,,,,,,,,,,,,,,,,,,,,,,,,,,,,,,,,,,,,,,,,,,,,,,,,,,,,,,,,,,,,,,,,,,,,,,,,,,,,,,,,,,,,,,,,,,,,,,,,,,,,,,,,,,,,,,,,,,,,,,,,,,,
waveOut,4,5,62,76,76,75,75,84,80,73,80,79,71,65,67,59,64,61,62,56,61,58,54,50,50,49,45,44,44,50,54,76,82,85,83,101,117,143,148,156,152,154,143,149,178,214,245,264,295,304,287,270,267,233,198,232,248,253,327,369,368,360,342,265,221,189,180,192,208,203,187,206,343,342,342,364,347,207,225,232,242,238,232,204,176,102,89,89,92,93,95,90,74,62,62,53,57,55,69,76,86,94,95,84,81,71,71,70,74,,,,,,,,,,,,,,,,,,,,,,,,,,,,,,,,,,,,,,,,,,,,,,,,,,,,,,,,,,,,,,,,,,,,,,,,,,,,,,,,,,,,,,,,,,,,,,,,,,,,,,,,,,,,,,,,,,,,,,,,,,,,,,,,,,,,,,,
waveOut,4,6,98,96,92,78,70,69,62,63,71,84,88,92,93,87,78,71,68,65,68,61,55,52,55,67,66,68,70,71,74,72,76,76,76,70,70,74,75,77,72,74,72,69,67,74,88,84,84,90,85,72,77,98,94,98,101,108,101,125,133,150,145,138,138,130,131,138,149,155,176,196,203,198,197,184,149,137,139,135,127,148,166,163,152,181,171,149,168,174,141,131,129,116,109,109,106,117,100,96,97,98,90,92,83,79,71,66,102,105,105,114,131,125,122,125,138,127,110,111,129,113,120,120,120,99,89,65,70,76,75,85,89,84,86,88,93,107,104,97,92,80,56,53,52,47,54,63,62,69,70,63,58,57,,,,,,,,,,,,,,,,,,,,,,,,,,,,,,,,,,,,,,,,,,,,,,,,,,,,,,,,,,,,,,,,,,,,,,,,,,,,,,,,,,,,,,,,,,
waveOut,4,7,50,55,66,69,68,68,64,64,65,64,67,62,67,63,67,64,65,51,49,61,69,74,74,76,70,71,71,66,65,60,55,49,48,49,62,67,75,78,80,68,64,56,53,54,72,80,98,105,111,108,113,104,106,107,109,96,119,131,129,128,167,157,216,219,247,278,276,237,248,227,182,193,213,224,222,205,202,170,148,140,138,118,113,89,96,89,86,76,70,46,40,40,40,39,37,37,45,44,69,73,73,71,72,49,57,57,54,61,59,46,50,54,56,62,74,76,76,74,77,85,92,96,94,94,84,81,91,,,,,,,,,,,,,,,,,,,,,,,,,,,,,,,,,,,,,,,,,,,,,,,,,,,,,,,,,,,,,,,,,,,,,,,,,,,,,,,,,,,,,,,,,,,,,,,,,,,,,,,,,,,,,,,,,,,
waveOut,4,8,41,40,44,43,43,51,55,56,57,57,58,58,56,54,59,66,67,66,66,57,42,38,43,51,50,56,71,73,70,73,74,60,58,60,61,60,63,67,70,68,72,106,117,139,157,210,225,254,258,266,227,218,194,243,281,318,318,338,325,297,290,305,277,246,226,185,135,125,135,131,126,124,119,89,92,140,144,158,162,169,137,138,123,116,108,107,108,106,103,89,78,43,37,39,42,47,64,66,67,72,73,73,70,73,65,68,77,83,86,88,82,63,,,,,,,,,,,,,,,,,,,,,,,,,,,,,,,,,,,,,,,,,,,,,,,,,,,,,,,,,,,,,,,,,,,,,,,,,,,,,,,,,,,,,,,,,,,,,,,,,,,,,,,,,,,,,,,,,,,,,,,,,,,,,,,,,,
waveOut,4,9,56,59,59,56,57,58,51,57,57,59,57,58,54,50,47,49,54,50,50,46,42,34,33,31,32,29,26,34,36,35,37,47,44,57,68,72,66,70,59,47,43,46,49,72,83,89,91,99,88,89,149,184,208,244,283,269,251,248,276,249,239,249,243,195,195,197,190,183,169,150,150,138,132,122,127,117,115,109,110,106,102,102,92,73,58,49,44,59,107,127,130,131,124,91,60,54,49,46,41,47,52,51,55,60,72,68,69,70,67,62,70,79,84,84,76,73,65,57,55,57,51,49,56,65,69,80,,,,,,,,,,,,,,,,,,,,,,,,,,,,,,,,,,,,,,,,,,,,,,,,,,,,,,,,,,,,,,,,,,,,,,,,,,,,,,,,,,,,,,,,,,,,,,,,,,,,,,,,,,,,,,,,,,,,
waveIn,4,0,50,49,47,40,38,40,48,52,54,52,47,40,40,43,42,42,42,39,51,59,67,69,76,77,73,70,73,75,108,134,137,138,137,110,99,97,108,126,137,184,255,292,481,539,551,667,827,860,860,99,97,1046,1109,1067,1064,1142,1039,1045,1120,1103,993,1012,955,921,823,808,660,665,543,527,417,406,306,252,185,126,114,88,86,81,78,68,65,65,58,60,66,68,65,68,69,67,64,70,74,72,67,60,60,62,68,67,71,66,70,65,67,69,72,63,,,,,,,,,,,,,,,,,,,,,,,,,,,,,,,,,,,,,,,,,,,,,,,,,,,,,,,,,,,,,,,,,,,,,,,,,,,,,,,,,,,,,,,,,,,,,,,,,,,,,,,,,,,,,,,,,,,,,,,,,,,,,,,,,,,,
waveIn,4,1,79,72,73,61,52,73,79,82,88,108,94,94,100,104,89,97,113,113,103,106,113,133,142,155,188,192,214,214,220,247,275,283,328,592,753,797,942,1120,1141,1171,1245,1280,1205,1166,1168,1157,1182,1180,1167,1112,1090,1019,1021,1013,958,900,787,651,549,506,472,394,381,352,310,226,183,177,146,116,104,90,73,60,59,63,77,76,75,72,66,56,51,51,52,53,49,51,52,58,64,60,59,65,61,51,54,56,48,48,54,55,52,62,73,73,,,,,,,,,,,,,,,,,,,,,,,,,,,,,,,,,,,,,,,,,,,,,,,,,,,,,,,,,,,,,,,,,,,,,,,,,,,,,,,,,,,,,,,,,,,,,,,,,,,,,,,,,,,,,,,,,,,,,,,,,,,,,,,,,,,,,,,,
waveIn,4,2,71,82,102,103,106,111,106,86,83,76,53,44,47,44,44,60,63,66,73,77,67,64,58,48,40,45,47,44,47,48,43,39,40,43,45,39,46,57,64,63,63,63,59,48,46,47,44,39,41,42,48,51,53,60,70,70,72,86,118,135,148,148,181,169,164,154,166,158,205,221,239,287,327,375,498,663,670,862,917,1105,1123,1216,1181,1224,1191,1233,1253,1249,1249,1129,1064,1044,1085,1086,1062,979,860,665,480,417,382,325,306,239,178,175,156,124,96,88,68,68,56,40,45,48,48,61,60,56,60,67,56,57,57,54,50,56,59,63,60,56,56,65,64,,,,,,,,,,,,,,,,,,,,,,,,,,,,,,,,,,,,,,,,,,,,,,,,,,,,,,,,,,,,,,,,,,,,,,,,,,,,,,,,,,,,,,,,,,,,,,,,,,,,,,,,,,,
waveIn,4,3,70,70,80,63,71,75,74,62,73,63,60,109,116,110,113,113,75,63,73,69,76,70,72,62,81,77,76,75,73,50,57,68,66,73,74,70,76,79,91,103,103,101,107,92,82,102,99,147,153,157,163,174,145,144,157,233,288,349,447,631,766,801,919,953,969,880,896,874,854,783,808,823,717,709,647,574,441,402,267,199,181,166,136,113,108,94,86,85,80,81,80,119,113,116,114,113,80,84,75,83,95,92,86,94,114,114,110,118,118,101,113,118,108,110,105,85,88,87,82,81,,,,,,,,,,,,,,,,,,,,,,,,,,,,,,,,,,,,,,,,,,,,,,,,,,,,,,,,,,,,,,,,,,,,,,,,,,,,,,,,,,,,,,,,,,,,,,,,,,,,,,,,,,,,,,,,,,,,,,,,,,
waveIn,4,4,79,92,91,87,96,90,80,78,75,60,71,66,70,70,69,67,67,64,74,82,83,91,93,88,85,89,83,98,105,108,104,106,97,96,107,115,127,138,168,163,192,235,278,282,353,383,430,513,604,735,950,1036,1060,1069,1030,882,923,911,894,842,856,707,647,606,577,448,366,298,218,187,171,153,129,104,82,95,99,100,114,114,104,103,105,91,87,99,96,91,92,99,87,85,87,86,76,76,87,89,92,103,111,105,102,96,84,,,,,,,,,,,,,,,,,,,,,,,,,,,,,,,,,,,,,,,,,,,,,,,,,,,,,,,,,,,,,,,,,,,,,,,,,,,,,,,,,,,,,,,,,,,,,,,,,,,,,,,,,,,,,,,,,,,,,,,,,,,,,,,,,,,,,,,,,
waveIn,4,5,95,95,87,89,97,76,73,79,73,58,74,75,70,74,70,52,66,76,75,75,75,62,64,64,65,69,77,71,75,86,106,113,115,132,132,130,140,149,136,152,144,146,164,172,157,162,156,148,200,323,386,423,465,521,598,740,859,1000,1004,1127,1201,1178,1181,1272,1188,1120,1163,1198,1167,1135,1092,1068,912,843,791,690,550,488,353,287,275,190,127,108,73,63,83,89,95,98,97,83,77,72,63,63,51,47,43,75,86,89,90,111,104,134,147,156,148,145,111,95,91,93,99,111,110,,,,,,,,,,,,,,,,,,,,,,,,,,,,,,,,,,,,,,,,,,,,,,,,,,,,,,,,,,,,,,,,,,,,,,,,,,,,,,,,,,,,,,,,,,,,,,,,,,,,,,,,,,,,,,,,,,,,,,,,,,,,,
waveIn,4,6,84,86,89,82,76,73,70,86,89,80,89,99,84,90,89,97,94,98,91,92,80,76,77,78,89,88,90,84,84,86,84,79,79,80,63,65,70,83,83,78,72,72,60,70,69,82,86,84,97,126,129,127,129,113,87,75,74,72,79,88,102,150,168,192,240,280,328,421,542,723,832,938,963,943,964,910,906,1002,1030,1019,1128,1125,1058,1075,1056,956,842,764,649,458,312,302,242,207,164,145,132,131,124,120,120,109,114,108,110,91,100,100,103,127,129,120,119,114,98,101,90,91,92,88,83,85,87,88,85,91,90,87,95,,,,,,,,,,,,,,,,,,,,,,,,,,,,,,,,,,,,,,,,,,,,,,,,,,,,,,,,,,,,,,,,,,,,,,,,,,,,,,,,,,,,,,,,,,,,,,,,,,,,,,,,,,,,,,,,,
waveIn,4,7,86,91,85,92,93,84,77,70,81,89,87,89,92,78,74,83,82,80,83,74,63,60,60,46,45,43,44,67,93,91,95,105,97,79,82,80,66,62,55,46,41,43,46,63,71,75,90,99,94,99,100,94,86,82,91,91,85,83,87,77,78,111,123,131,183,319,518,617,817,875,945,996,1016,971,991,976,915,915,866,810,780,690,583,488,426,290,259,219,198,188,119,88,84,82,80,74,79,76,87,94,97,91,89,76,61,79,92,97,98,94,77,71,66,68,69,78,85,86,98,100,100,85,86,75,88,84,,,,,,,,,,,,,,,,,,,,,,,,,,,,,,,,,,,,,,,,,,,,,,,,,,,,,,,,,,,,,,,,,,,,,,,,,,,,,,,,,,,,,,,,,,,,,,,,,,,,,,,,,,,,,,,,,,,,
waveIn,4,8,79,83,87,82,87,84,85,87,91,89,87,81,71,102,105,98,102,118,101,103,104,107,104,98,90,92,89,76,75,74,80,75,72,78,84,74,76,71,63,70,73,69,72,71,97,94,96,97,104,86,89,90,93,84,64,66,69,73,80,78,73,86,91,93,94,102,103,98,90,97,119,139,135,137,135,113,88,122,154,187,370,445,644,770,868,891,988,977,944,1036,1068,1099,1101,1133,1059,1019,953,913,868,884,864,784,722,664,497,413,354,310,254,208,166,150,109,117,106,105,100,107,97,95,99,103,97,129,126,122,118,113,86,92,97,98,103,93,103,98,135,146,,,,,,,,,,,,,,,,,,,,,,,,,,,,,,,,,,,,,,,,,,,,,,,,,,,,,,,,,,,,,,,,,,,,,,,,,,,,,,,,,,,,,,,,,,,,,,,,,,,,,,,,
waveIn,4,9,69,75,91,84,88,87,94,80,77,75,93,86,90,92,89,89,95,97,111,127,117,117,117,105,99,107,128,130,133,141,153,145,144,142,141,118,100,101,112,120,128,162,224,234,287,545,785,940,1096,1188,1196,1186,1150,1063,1007,1044,910,914,973,915,929,973,870,721,786,537,404,376,368,156,122,120,101,99,89,92,80,90,90,88,99,131,130,134,137,132,103,103,104,103,95,97,97,96,105,110,110,106,108,106,102,93,114,119,111,114,122,,,,,,,,,,,,,,,,,,,,,,,,,,,,,,,,,,,,,,,,,,,,,,,,,,,,,,,,,,,,,,,,,,,,,,,,,,,,,,,,,,,,,,,,,,,,,,,,,,,,,,,,,,,,,,,,,,,,,,,,,,,,,,,,,,,,,,,
doubleTap,4,0,73,68,70,71,71,57,67,66,67,67,67,61,62,79,87,89,90,96,86,88,111,155,204,244,246,238,218,182,129,135,141,131,121,134,131,175,188,184,179,166,115,100,108,99,108,104,104,98,91,81,82,74,79,87,83,113,121,117,122,129,104,92,88,71,67,72,71,71,70,81,83,82,82,82,70,62,58,72,80,91,102,106,98,90,74,64,77,81,81,86,73,59,67,72,67,75,74,62,72,78,,,,,,,,,,,,,,,,,,,,,,,,,,,,,,,,,,,,,,,,,,,,,,,,,,,,,,,,,,,,,,,,,,,,,,,,,,,,,,,,,,,,,,,,,,,,,,,,,,,,,,,,,,,,,,,,,,,,,,,,,,,,,,,,,,,,,,,,,,,,,,
doubleTap,4,1,92,103,99,100,94,80,71,85,92,84,82,81,71,62,65,86,84,90,87,85,66,76,82,117,126,153,202,200,188,187,173,143,142,137,139,139,128,192,357,369,377,375,357,213,198,182,176,156,128,123,122,118,108,105,90,85,74,76,72,71,73,86,85,87,94,88,76,85,95,89,86,87,81,72,66,68,68,63,81,86,96,93,93,76,78,66,68,67,63,53,74,,,,,,,,,,,,,,,,,,,,,,,,,,,,,,,,,,,,,,,,,,,,,,,,,,,,,,,,,,,,,,,,,,,,,,,,,,,,,,,,,,,,,,,,,,,,,,,,,,,,,,,,,,,,,,,,,,,,,,,,,,,,,,,,,,,,,,,,,,,,,,,,,,,,,,,
doubleTap,4,2,89,86,86,70,71,68,69,79,69,72,74,76,85,87,79,92,91,73,72,73,88,91,94,95,103,96,94,92,95,85,75,104,112,128,141,166,213,229,224,218,202,144,113,105,109,100,117,175,177,175,177,164,115,143,143,140,139,131,98,96,116,127,119,121,118,92,57,60,53,55,59,71,88,95,98,96,95,85,88,84,83,93,91,75,78,83,73,68,72,75,94,107,109,109,104,92,86,85,83,89,81,72,72,85,103,112,117,121,113,91,,,,,,,,,,,,,,,,,,,,,,,,,,,,,,,,,,,,,,,,,,,,,,,,,,,,,,,,,,,,,,,,,,,,,,,,,,,,,,,,,,,,,,,,,,,,,,,,,,,,,,,,,,,,,,,,,,,,,,,,,,,,,,,,,,,,
doubleTap,4,3,78,81,86,84,92,97,115,115,111,105,109,88,83,96,101,95,89,100,94,88,87,98,91,87,87,87,72,75,71,101,101,113,111,113,114,125,175,201,207,195,190,150,144,142,142,138,131,102,148,254,292,298,297,283,195,140,124,128,115,114,113,116,106,99,91,116,110,112,126,138,105,123,123,109,99,112,102,122,119,116,114,108,93,92,93,102,100,92,92,109,98,107,107,113,94,84,67,80,96,105,107,107,103,85,95,94,,,,,,,,,,,,,,,,,,,,,,,,,,,,,,,,,,,,,,,,,,,,,,,,,,,,,,,,,,,,,,,,,,,,,,,,,,,,,,,,,,,,,,,,,,,,,,,,,,,,,,,,,,,,,,,,,,,,,,,,,,,,,,,,,,,,,,,,
doubleTap,4,4,93,98,89,89,89,83,120,123,122,122,119,73,64,66,63,62,69,80,87,99,96,97,93,84,71,69,74,69,71,95,124,246,293,295,297,295,210,150,151,142,139,144,162,174,169,174,165,142,129,132,122,128,125,119,115,106,86,85,93,103,104,108,99,97,95,95,99,107,99,106,86,85,99,93,97,104,97,96,95,94,81,87,85,99,113,110,118,120,102,92,93,86,101,103,97,98,87,68,88,95,96,98,100,83,98,96,108,114,113,90,91,,,,,,,,,,,,,,,,,,,,,,,,,,,,,,,,,,,,,,,,,,,,,,,,,,,,,,,,,,,,,,,,,,,,,,,,,,,,,,,,,,,,,,,,,,,,,,,,,,,,,,,,,,,,,,,,,,,,,,,,,,,,,,,,,,,
doubleTap,4,5,91,88,83,98,102,104,104,104,85,63,62,58,70,77,86,91,94,89,101,104,102,107,107,90,78,78,89,109,117,122,152,157,147,143,157,127,116,119,132,123,156,172,176,180,176,165,158,155,139,138,121,97,91,88,96,87,96,101,102,91,110,108,100,101,111,86,93,89,98,85,86,78,88,119,129,132,129,126,95,96,100,112,109,102,96,89,81,86,91,97,100,101,92,85,96,118,112,115,119,,,,,,,,,,,,,,,,,,,,,,,,,,,,,,,,,,,,,,,,,,,,,,,,,,,,,,,,,,,,,,,,,,,,,,,,,,,,,,,,,,,,,,,,,,,,,,,,,,,,,,,,,,,,,,,,,,,,,,,,,,,,,,,,,,,,,,,,,,,,,,,
doubleTap,4,6,77,82,84,95,89,108,112,123,116,114,97,95,94,105,108,126,124,111,100,113,100,102,107,108,110,95,97,92,94,72,95,88,101,100,95,102,108,105,105,107,87,124,153,191,208,216,196,210,177,163,153,148,86,115,148,148,152,160,150,134,130,134,127,126,104,103,98,92,77,89,98,117,118,117,113,121,100,97,100,86,80,88,102,104,116,111,110,95,100,95,93,91,92,84,86,80,73,73,78,82,92,101,104,101,92,93,97,97,98,92,103,100,102,108,110,87,80,97,,,,,,,,,,,,,,,,,,,,,,,,,,,,,,,,,,,,,,,,,,,,,,,,,,,,,,,,,,,,,,,,,,,,,,,,,,,,,,,,,,,,,,,,,,,,,,,,,,,,,,,,,,,,,,,,,,,,,,,,,,,,
doubleTap,4,7,96,86,85,110,109,109,105,115,100,105,100,104,98,90,106,111,115,114,114,89,101,101,97,93,89,78,72,74,84,98,91,97,99,95,133,149,145,152,161,179,187,188,190,189,148,123,120,108,91,92,107,183,192,201,207,200,136,130,133,112,113,116,110,110,111,109,104,98,77,72,69,104,111,112,108,105,73,72,122,135,136,134,132,90,69,75,72,64,66,81,92,98,105,110,106,95,100,105,97,91,86,80,84,86,85,87,89,72,75,91,107,110,109,105,93,90,,,,,,,,,,,,,,,,,,,,,,,,,,,,,,,,,,,,,,,,,,,,,,,,,,,,,,,,,,,,,,,,,,,,,,,,,,,,,,,,,,,,,,,,,,,,,,,,,,,,,,,,,,,,,,,,,,,,,,,,,,,,,,
doubleTap,4,8,99,92,92,105,94,98,103,97,81,90,100,108,111,110,104,100,95,86,87,99,94,88,85,82,90,118,139,167,166,155,133,112,72,85,87,87,83,96,92,88,154,209,234,247,256,229,187,152,126,110,106,113,107,106,104,93,85,81,90,90,90,80,82,76,71,70,71,79,92,114,123,144,148,146,146,140,117,101,95,70,77,90,103,96,100,95,88,75,83,87,117,121,122,121,128,107,100,114,136,131,129,135,128,123,118,116,117,,,,,,,,,,,,,,,,,,,,,,,,,,,,,,,,,,,,,,,,,,,,,,,,,,,,,,,,,,,,,,,,,,,,,,,,,,,,,,,,,,,,,,,,,,,,,,,,,,,,,,,,,,,,,,,,,,,,,,,,,,,,,,,,,,,,,,,
doubleTap,4,9,76,67,69,66,71,105,100,109,115,120,96,101,93,104,98,94,85,97,80,76,74,82,78,81,106,123,132,147,169,162,152,154,139,114,107,105,99,98,107,141,181,180,195,196,183,172,172,155,144,129,91,76,70,68,78,75,75,72,73,65,65,87,84,87,92,93,71,85,89,79,77,83,68,57,63,64,76,75,74,71,73,56,61,75,79,78,81,86,84,80,78,93,97,95,97,100,101,90,,,,,,,,,,,,,,,,,,,,,,,,,,,,,,,,,,,,,,,,,,,,,,,,,,,,,,,,,,,,,,,,,,,,,,,,,,,,,,,,,,,,,,,,,,,,,,,,,,,,,,,,,,,,,,,,,,,,,,,,,,,,,,,,,,,,,,,,,,,,,,,,
