fist,1,0,20,24,26,26,26,26,24,25,23,24,25,23,22,21,21,20,21,20,20,19,19,20,20,23,23,22,23,23,23,23,23,23,24,21,21,21,19,18,19,19,21,22,22,21,34,220,499,818,989,1073,1117,1240,1167,1176,1161,1139,1029,950,872,961,1057,1081,1122,1078,1029,905,741,630,620,506,534,551,569,540,494,436,412,368,349,330,338,314,334,296,316,320,332,319,472,573,595,618,633,537,435,431,435,457,473,499,491,470,485,511,467,497,483,419,361,364,383,503,541,682,697,696,623,622,458,425,316,274,181,174,171,169,159,134,111,115,107,100,104,118,118,118,112,,,,,,,,,,,,,,,,,,,,,,,,,,,,,,,,,,,,,,,,,,,,,,,,,,,,,,,,,,,,,,,,,,,,,,,,,,,,,,,,,,,,,,,,,,,,,,,,,,,,,,,,,
fist,1,1,349,301,380,429,435,435,488,473,484,472,510,473,455,398,402,407,416,414,438,430,370,350,332,335,306,303,340,376,379,384,369,332,275,211,192,183,149,138,130,78,150,194,216,250,266,251,245,244,211,193,175,153,137,133,128,136,145,138,138,143,129,117,160,172,166,162,160,108,92,90,91,63,80,96,101,105,102,96,72,69,86,95,89,92,88,67,57,86,174,322,457,618,761,807,824,851,823,813,804,835,848,846,774,764,695,696,667,648,650,656,567,528,540,487,511,484,505,466,522,483,472,456,480,436,458,562,581,604,625,618,515,488,446,443,398,447,414,380,355,405,469,479,489,475,422,276,249,256,243,265,250,246,261,244,207,205,198,145,140,131,126,145,125,127,125,,,,,,,,,,,,,,,,,,,,,,,,,,,,,,,,,,,,,,,,,,,,,,,,,,,,,,,,,,,,,,,,,,,,,,,,,,,,,
fist,1,2,87,91,91,53,54,62,57,61,58,58,44,49,49,51,49,52,45,54,55,54,84,86,79,83,85,63,63,64,56,56,46,42,40,58,127,135,153,175,290,301,394,615,780,795,932,989,941,1020,1022,979,996,976,845,843,817,736,872,814,870,850,834,649,706,652,603,635,651,616,604,624,565,531,495,430,409,424,546,613,606,607,642,591,591,609,636,598,556,468,525,483,475,482,480,430,430,409,390,384,381,422,480,511,573,545,531,481,434,308,293,261,246,257,260,239,176,166,128,125,132,141,150,144,146,212,208,203,212,203,124,136,144,133,133,131,114,91,64,64,80,78,102,107,101,89,90,63,85,94,95,,,,,,,,,,,,,,,,,,,,,,,,,,,,,,,,,,,,,,,,,,,,,,,,,,,,,,,,,,,,,,,,,,,,,,,,,,,,,,,,,,,,,,,,,,,,,
fist,1,3,92,95,69,60,59,61,63,96,98,137,142,144,128,134,94,154,218,388,546,630,699,809,839,805,887,904,877,850,827,756,730,725,705,750,709,733,714,668,697,735,686,722,784,740,696,692,608,542,530,503,526,591,606,571,559,511,418,406,401,439,473,486,533,539,560,532,584,522,512,478,483,441,450,518,538,521,489,521,457,472,479,451,390,349,226,203,180,163,151,144,73,97,120,134,145,160,146,130,127,119,152,153,164,160,154,133,135,120,124,131,100,91,88,75,87,82,76,83,80,86,86,91,85,88,77,76,71,76,74,58,58,58,,,,,,,,,,,,,,,,,,,,,,,,,,,,,,,,,,,,,,,,,,,,,,,,,,,,,,,,,,,,,,,,,,,,,,,,,,,,,,,,,,,,,,,,,,,,,,,,,,,,,,,,,,,,,,
fist,1,4,50,38,29,30,28,34,34,36,34,33,26,29,76,78,80,87,100,127,140,181,236,276,320,356,378,403,420,477,567,625,634,674,680,633,594,648,662,611,631,732,685,721,816,802,754,818,792,894,926,899,839,824,595,537,560,555,565,576,588,592,586,544,537,520,504,553,547,569,550,521,467,463,461,476,455,442,474,441,474,492,494,460,481,418,443,460,438,413,453,402,373,378,387,341,313,281,241,175,115,107,124,192,210,221,253,245,191,172,165,138,158,158,154,158,127,114,121,128,115,107,85,92,80,83,90,92,76,87,100,97,97,98,,,,,,,,,,,,,,,,,,,,,,,,,,,,,,,,,,,,,,,,,,,,,,,,,,,,,,,,,,,,,,,,,,,,,,,,,,,,,,,,,,,,,,,,,,,,,,,,,,,,,,,,,,,,,,
fist,1,5,27,29,30,32,28,30,32,36,41,40,39,40,41,41,41,41,42,41,35,36,61,64,63,65,67,50,69,121,149,194,256,468,599,639,767,825,840,832,884,818,770,664,584,456,387,414,457,489,514,534,614,657,662,677,682,607,550,561,615,607,619,628,610,554,546,510,486,511,499,511,523,512,445,447,424,413,434,486,574,586,615,643,604,513,519,581,618,708,800,826,798,817,852,808,771,713,598,438,365,358,359,360,416,387,364,402,442,423,428,430,391,345,245,190,191,211,217,220,238,229,209,192,184,157,155,128,127,135,140,130,128,107,90,92,83,78,74,77,65,71,76,75,79,81,75,76,76,70,76,75,64,63,62,47,57,57,76,75,62,,,,,,,,,,,,,,,,,,,,,,,,,,,,,,,,,,,,,,,,,,,,,,,,,,,,,,,,,,,,,,,,,,,,,,,,,,,,,,,,,,,
fist,1,6,36,37,37,38,40,39,46,58,68,78,88,129,181,199,198,204,182,153,153,234,274,390,486,542,580,594,591,531,532,474,469,400,453,394,505,499,541,527,532,478,491,450,427,528,514,496,518,568,510,475,544,558,515,504,538,497,511,486,470,448,439,403,406,390,419,404,498,516,590,566,603,520,505,417,433,373,400,436,459,540,588,559,599,624,534,461,458,347,239,211,195,167,140,138,131,150,126,123,119,125,107,107,102,88,85,116,121,126,125,123,90,73,64,72,67,59,65,64,53,55,56,52,56,57,55,52,53,50,53,50,50,48,43,40,39,44,,,,,,,,,,,,,,,,,,,,,,,,,,,,,,,,,,,,,,,,,,,,,,,,,,,,,,,,,,,,,,,,,,,,,,,,,,,,,,,,,,,,,,,,,,,,,,,,,,,,,,,,,,
fist,1,7,106,104,108,173,183,216,274,307,299,303,296,257,238,217,204,194,210,301,305,326,357,426,386,419,408,409,341,370,348,414,434,463,445,457,445,476,504,551,595,623,643,636,687,659,660,656,679,578,576,534,468,399,404,422,443,436,424,517,477,452,514,565,482,482,473,428,340,336,367,375,395,438,458,486,561,528,552,553,557,530,533,522,510,565,568,611,600,597,520,462,397,413,410,371,408,462,457,452,454,417,338,258,222,191,136,119,121,147,147,143,146,170,148,145,147,140,75,63,56,43,39,38,45,55,60,57,68,128,137,150,168,194,164,157,157,141,98,97,92,68,63,57,43,39,40,44,45,50,47,46,41,41,44,49,51,52,50,63,,,,,,,,,,,,,,,,,,,,,,,,,,,,,,,,,,,,,,,,,,,,,,,,,,,,,,,,,,,,,,,,,,,,,,,,,,,,,,,,,,,,
fist,1,8,68,82,128,204,228,335,438,495,494,567,524,463,449,429,402,417,487,454,533,479,542,492,542,539,569,541,548,536,493,526,503,490,577,620,610,606,611,537,524,498,496,577,564,522,548,576,588,579,645,663,668,617,620,646,645,670,677,737,695,750,739,732,728,691,577,510,446,293,243,188,159,149,106,99,95,82,111,110,115,112,111,72,74,104,107,114,117,116,84,81,84,87,82,116,121,112,110,109,74,64,65,51,46,46,47,42,43,50,44,39,41,39,32,32,38,34,38,42,45,48,,,,,,,,,,,,,,,,,,,,,,,,,,,,,,,,,,,,,,,,,,,,,,,,,,,,,,,,,,,,,,,,,,,,,,,,,,,,,,,,,,,,,,,,,,,,,,,,,,,,,,,,,,,,,,,,,,,,,,,,,,
fist,1,9,30,30,25,26,27,29,29,31,30,29,26,27,24,26,27,30,31,34,36,37,39,87,126,138,169,180,193,189,218,237,240,234,284,289,267,309,322,314,323,336,353,392,392,380,472,469,495,488,510,455,494,459,504,497,488,421,436,400,474,490,494,503,500,417,403,436,383,354,361,344,332,346,413,457,451,520,526,511,492,535,485,481,555,571,573,589,601,597,597,610,569,554,461,450,381,362,346,329,256,232,213,184,156,144,103,93,117,112,103,98,94,54,60,59,58,59,57,57,55,59,62,63,69,70,75,70,73,84,82,76,79,76,53,66,69,71,74,71,62,55,48,43,40,48,47,50,47,49,39,43,45,44,45,,,,,,,,,,,,,,,,,,,,,,,,,,,,,,,,,,,,,,,,,,,,,,,,,,,,,,,,,,,,,,,,,,,,,,,,,,,,,,,,,,,,,,,,,
fingersSpread,1,0,60,62,62,37,30,30,27,26,22,21,34,34,34,34,35,27,26,30,104,113,127,141,194,170,170,169,169,153,175,204,210,222,222,219,237,247,236,248,356,369,372,406,402,402,447,479,490,492,452,411,370,352,429,420,402,480,476,425,451,481,425,427,412,357,292,244,188,138,106,83,66,54,38,32,29,24,22,21,21,22,23,22,24,22,20,21,22,33,36,36,36,36,23,21,21,20,20,23,22,22,22,,,,,,,,,,,,,,,,,,,,,,,,,,,,,,,,,,,,,,,,,,,,,,,,,,,,,,,,,,,,,,,,,,,,,,,,,,,,,,,,,,,,,,,,,,,,,,,,,,,,,,,,,,,,,,,,,,,,,,,,,,,,,,,,,,,,,,,,,,,,,
fingersSpread,1,1,115,129,135,147,149,159,164,178,198,218,262,273,284,280,329,310,315,316,375,351,357,407,417,406,384,470,452,511,523,533,481,490,419,364,392,402,387,403,428,409,420,416,433,409,393,328,281,202,171,146,116,110,96,85,72,48,50,42,36,33,32,24,19,20,20,22,32,33,41,43,42,36,36,29,27,25,24,25,23,21,23,23,22,21,22,20,22,22,22,21,23,23,21,21,21,22,20,20,24,24,23,23,23,19,22,22,21,21,22,20,18,19,22,21,20,21,22,18,20,21,19,18,21,22,23,26,27,26,25,23,20,20,20,20,21,21,18,19,17,18,33,45,52,55,54,48,37,26,21,21,19,22,21,,,,,,,,,,,,,,,,,,,,,,,,,,,,,,,,,,,,,,,,,,,,,,,,,,,,,,,,,,,,,,,,,,,,,,,,,,,,,,,,,,,,,,,,,
fingersSpread,1,2,19,20,21,18,19,19,19,18,24,25,24,25,26,22,28,28,36,51,72,85,112,114,120,127,134,121,119,125,124,138,133,140,158,148,128,148,155,169,191,207,215,225,216,228,242,280,325,353,365,371,348,316,278,295,306,307,348,372,347,360,401,393,402,430,466,456,476,480,447,371,326,270,235,263,287,343,340,340,345,325,277,244,224,200,192,170,168,150,81,75,53,42,41,38,35,32,30,26,22,21,23,22,23,25,26,24,39,46,48,50,51,41,32,,,,,,,,,,,,,,,,,,,,,,,,,,,,,,,,,,,,,,,,,,,,,,,,,,,,,,,,,,,,,,,,,,,,,,,,,,,,,,,,,,,,,,,,,,,,,,,,,,,,,,,,,,,,,,,,,,,,,,,,,,,,,,,,,
fingersSpread,1,3,25,23,22,22,24,25,27,29,28,27,28,24,29,30,34,33,34,30,33,78,90,101,113,117,95,86,81,87,101,110,116,186,180,216,225,233,185,187,169,168,166,172,232,288,368,404,421,430,421,357,334,330,322,310,308,340,358,340,311,328,322,316,304,394,389,365,399,483,479,514,535,507,442,374,328,305,318,342,358,344,360,369,340,325,329,277,210,247,240,267,278,274,215,192,120,89,78,56,49,42,34,35,31,29,38,42,60,62,63,56,54,28,25,21,21,22,23,24,24,26,24,23,23,22,20,,,,,,,,,,,,,,,,,,,,,,,,,,,,,,,,,,,,,,,,,,,,,,,,,,,,,,,,,,,,,,,,,,,,,,,,,,,,,,,,,,,,,,,,,,,,,,,,,,,,,,,,,,,,,,,,,,,,,
fingersSpread,1,4,19,20,21,20,20,20,23,22,22,22,22,21,21,22,32,105,112,115,136,139,100,95,96,102,105,122,127,129,111,107,127,143,150,189,224,217,242,246,233,208,274,269,273,287,294,284,269,393,448,468,463,473,476,429,472,470,457,400,406,383,374,431,412,425,499,510,486,497,490,412,511,504,488,512,527,426,427,458,420,360,349,342,265,239,222,188,147,149,134,112,100,98,69,57,32,31,30,29,29,30,28,29,27,28,26,27,26,24,23,36,69,72,81,81,76,50,46,28,28,29,24,23,23,21,21,22,,,,,,,,,,,,,,,,,,,,,,,,,,,,,,,,,,,,,,,,,,,,,,,,,,,,,,,,,,,,,,,,,,,,,,,,,,,,,,,,,,,,,,,,,,,,,,,,,,,,,,,,,,,,,,,,,,,,
fingersSpread,1,5,35,101,109,147,155,173,148,143,106,94,56,44,42,48,83,96,141,154,170,181,216,198,228,221,278,276,283,298,319,294,290,295,331,317,358,350,399,364,395,350,372,340,336,332,358,345,334,329,383,366,379,398,406,396,384,383,389,374,337,365,391,407,421,402,393,356,294,266,256,224,200,186,185,155,130,114,110,66,62,49,43,37,31,28,26,23,23,28,29,36,36,38,34,36,29,29,27,27,23,23,28,28,26,27,28,22,20,23,22,20,22,25,25,,,,,,,,,,,,,,,,,,,,,,,,,,,,,,,,,,,,,,,,,,,,,,,,,,,,,,,,,,,,,,,,,,,,,,,,,,,,,,,,,,,,,,,,,,,,,,,,,,,,,,,,,,,,,,,,,,,,,,,,,,,,,,,,,
fingersSpread,1,6,20,21,21,21,21,21,20,22,20,20,23,21,20,20,20,21,42,48,90,94,116,115,127,113,131,117,115,100,91,61,50,56,60,93,106,124,124,135,128,125,132,162,164,186,223,227,250,283,287,291,298,294,301,295,318,302,320,305,299,296,327,317,330,345,345,329,310,317,294,256,253,282,241,263,264,275,260,302,296,291,292,344,337,336,343,337,287,252,256,247,260,251,244,245,232,227,193,191,161,158,100,96,75,64,56,45,34,30,28,26,24,22,24,25,24,24,24,24,25,24,24,28,28,26,29,33,32,45,84,90,90,91,87,52,41,48,45,,,,,,,,,,,,,,,,,,,,,,,,,,,,,,,,,,,,,,,,,,,,,,,,,,,,,,,,,,,,,,,,,,,,,,,,,,,,,,,,,,,,,,,,,,,,,,,,,,,,,,,,,
fingersSpread,1,7,24,39,62,73,92,105,102,91,83,63,38,50,60,70,99,104,99,104,109,89,94,108,117,126,137,135,134,118,113,102,102,107,112,101,114,156,161,166,171,183,155,167,168,167,144,198,194,195,193,245,316,400,416,445,440,390,316,320,329,323,352,387,415,469,512,521,505,482,397,340,274,254,230,315,328,344,383,397,378,403,391,353,347,298,270,266,251,259,266,263,286,314,291,281,245,210,153,138,131,105,89,64,63,49,38,39,37,35,30,245,210,153,28,28,28,27,25,25,24,25,26,24,22,22,22,20,18,19,21,19,19,20,21,20,22,21,19,19,19,19,19,21,20,,,,,,,,,,,,,,,,,,,,,,,,,,,,,,,,,,,,,,,,,,,,,,,,,,,,,,,,,,,,,,,,,,,,,,,,,,,,,,,,,,,,,,,,,,,,,,,,,,,
fingersSpread,1,8,18,19,18,19,20,20,19,20,21,19,21,25,28,48,48,49,48,47,43,86,97,105,121,137,122,157,154,142,184,187,162,162,166,103,113,103,108,104,107,105,114,108,138,130,119,120,142,172,179,192,234,224,212,228,245,262,272,262,275,297,277,299,303,317,302,280,267,297,323,304,329,319,334,297,320,328,354,333,345,350,394,429,421,420,403,347,338,347,327,367,354,293,262,259,192,200,225,230,236,278,266,283,291,281,265,271,254,255,260,225,209,166,124,79,57,54,43,43,44,37,33,31,29,27,27,25,27,28,28,26,26,22,19,22,22,22,22,21,20,21,20,24,24,26,25,26,23,23,20,19,,,,,,,,,,,,,,,,,,,,,,,,,,,,,,,,,,,,,,,,,,,,,,,,,,,,,,,,,,,,,,,,,,,,,,,,,,,,,,,,,,,,,,,,,,,,
fingersSpread,1,9,32,46,70,98,110,117,119,107,89,85,86,82,84,82,88,81,89,124,156,153,154,173,155,130,128,132,112,144,144,186,206,227,235,240,233,227,224,230,229,236,258,270,262,284,311,312,298,294,277,263,242,268,279,301,295,307,280,259,275,264,245,269,279,247,235,247,245,243,245,268,277,305,299,283,258,247,193,186,203,203,208,200,210,223,225,225,227,228,239,231,224,212,200,159,156,126,158,177,171,169,182,170,149,142,137,116,72,56,52,52,51,47,39,30,29,25,27,27,26,25,23,21,23,24,24,24,25,23,25,24,23,25,24,21,22,22,20,23,21,21,23,,,,,,,,,,,,,,,,,,,,,,,,,,,,,,,,,,,,,,,,,,,,,,,,,,,,,,,,,,,,,,,,,,,,,,,,,,,,,,,,,,,,,,,,,,,,,,,,,,,,,
waveOut,1,0,22,22,22,21,21,17,21,27,31,40,42,47,48,50,48,60,61,63,71,76,70,68,74,68,64,91,101,98,112,146,177,193,237,264,274,272,270,291,290,363,452,470,458,484,468,377,443,449,428,400,428,364,395,415,433,428,417,390,376,357,368,369,350,327,314,282,310,379,410,410,399,401,342,323,325,342,327,307,311,297,284,250,249,201,180,152,147,161,168,174,180,174,186,171,164,157,137,96,95,88,81,83,72,64,66,61,51,46,36,28,27,27,25,27,25,25,25,25,22,24,22,24,23,24,23,24,,,,,,,,,,,,,,,,,,,,,,,,,,,,,,,,,,,,,,,,,,,,,,,,,,,,,,,,,,,,,,,,,,,,,,,,,,,,,,,,,,,,,,,,,,,,,,,,,,,,,,,,,,,,,,,,,,,,
waveOut,1,1,51,45,41,40,48,53,57,62,64,90,160,170,199,224,230,214,213,194,173,192,172,201,234,286,281,311,309,312,335,348,362,404,474,448,450,432,416,347,378,421,500,504,525,581,586,521,525,551,516,501,512,535,567,526,529,547,568,489,574,571,552,502,507,406,437,417,421,406,453,409,431,402,421,399,417,394,397,357,301,247,230,211,224,216,181,192,197,187,186,191,193,213,206,208,209,202,168,155,146,123,148,148,141,140,136,89,74,68,58,53,52,46,46,42,40,36,32,27,29,,,,,,,,,,,,,,,,,,,,,,,,,,,,,,,,,,,,,,,,,,,,,,,,,,,,,,,,,,,,,,,,,,,,,,,,,,,,,,,,,,,,,,,,,,,,,,,,,,,,,,,,,,,,,,,,,,,,,,,,,,,
waveOut,1,2,25,25,26,24,28,29,34,34,39,43,53,55,59,63,67,66,65,70,77,89,88,90,89,91,94,124,126,164,184,182,177,195,215,248,258,257,289,309,369,391,432,413,412,360,388,410,455,433,454,442,411,457,454,428,472,503,437,465,466,397,345,362,367,362,381,418,486,466,456,444,401,277,263,272,241,209,180,178,172,221,242,251,229,207,200,185,170,172,180,132,127,131,140,126,109,98,93,78,116,121,117,121,115,79,74,78,62,66,57,53,56,56,49,50,50,33,55,57,59,60,60,40,37,31,,,,,,,,,,,,,,,,,,,,,,,,,,,,,,,,,,,,,,,,,,,,,,,,,,,,,,,,,,,,,,,,,,,,,,,,,,,,,,,,,,,,,,,,,,,,,,,,,,,,,,,,,,,,,,,,,,,,,,
waveOut,1,3,26,29,28,26,25,28,29,31,31,32,31,33,36,36,35,39,38,41,49,56,60,60,60,57,58,51,64,69,76,80,98,106,115,156,160,194,298,302,323,355,367,367,382,402,380,361,330,333,280,298,336,302,289,329,321,327,353,434,457,496,468,463,393,361,307,336,422,461,462,490,524,461,442,437,409,353,345,387,376,405,401,449,393,419,410,413,363,358,347,327,322,294,290,312,284,267,268,272,227,234,241,232,214,171,159,149,154,149,134,130,103,91,70,61,63,63,52,52,52,52,49,50,,,,,,,,,,,,,,,,,,,,,,,,,,,,,,,,,,,,,,,,,,,,,,,,,,,,,,,,,,,,,,,,,,,,,,,,,,,,,,,,,,,,,,,,,,,,,,,,,,,,,,,,,,,,,,,,,,,,,,,,
waveOut,1,4,24,23,22,27,29,27,29,29,27,27,30,31,33,31,31,32,36,35,37,40,42,41,44,45,48,48,50,51,56,65,72,73,79,82,77,78,81,90,88,98,91,91,81,85,85,91,100,100,109,114,121,118,126,127,130,133,172,185,213,217,237,226,230,225,218,243,256,267,256,278,248,239,234,266,285,300,314,307,310,343,360,339,361,422,425,423,441,444,378,321,302,300,302,290,324,309,312,322,316,282,285,259,188,226,219,218,227,246,245,249,264,254,264,230,267,245,256,232,222,159,191,186,213,217,219,198,203,164,160,148,126,74,69,70,70,66,63,57,44,41,42,40,39,38,35,37,46,45,45,45,40,29,,,,,,,,,,,,,,,,,,,,,,,,,,,,,,,,,,,,,,,,,,,,,,,,,,,,,,,,,,,,,,,,,,,,,,,,,,,,,,,,,,,,,,,,,,
waveOut,1,5,19,20,22,22,25,32,43,45,52,51,48,52,56,56,92,99,94,102,104,88,96,131,128,146,162,160,140,147,131,111,124,146,136,150,156,160,155,198,198,233,252,269,251,267,257,265,251,259,282,287,275,291,319,289,278,284,297,273,277,298,299,288,295,294,270,267,242,224,225,308,301,312,306,329,260,253,243,280,254,251,241,233,182,215,208,211,219,229,198,205,246,260,260,266,277,296,275,267,257,229,151,148,177,167,170,164,157,112,98,88,98,100,99,92,76,54,50,50,44,43,39,36,35,35,31,25,23,27,,,,,,,,,,,,,,,,,,,,,,,,,,,,,,,,,,,,,,,,,,,,,,,,,,,,,,,,,,,,,,,,,,,,,,,,,,,,,,,,,,,,,,,,,,,,,,,,,,,,,,,,,,,,,,,,,,
waveOut,1,6,19,20,20,23,23,22,25,27,26,27,30,30,28,38,56,56,59,61,56,48,60,60,63,64,62,56,70,69,67,63,63,48,48,51,51,49,49,84,90,95,115,122,113,122,120,117,125,123,113,120,122,133,139,178,183,192,191,197,188,186,174,174,180,168,184,231,243,234,240,252,245,311,367,391,438,512,547,565,568,563,504,467,434,470,424,398,346,364,308,349,391,396,358,351,331,277,256,236,203,170,198,197,200,190,178,168,171,149,151,168,154,143,148,148,118,88,85,73,70,72,74,71,71,66,63,50,48,43,43,37,47,49,49,53,57,49,46,,,,,,,,,,,,,,,,,,,,,,,,,,,,,,,,,,,,,,,,,,,,,,,,,,,,,,,,,,,,,,,,,,,,,,,,,,,,,,,,,,,,,,,,,,,,,,,,,,,,,,,,,
waveOut,1,7,23,24,25,24,26,27,26,26,26,25,22,27,28,29,27,31,28,30,39,40,44,46,47,43,49,43,41,38,35,30,38,43,43,48,49,48,57,65,63,70,83,94,112,117,117,112,117,116,113,128,148,144,165,175,171,159,168,141,151,169,183,195,203,203,219,222,235,285,284,265,280,261,218,233,271,257,281,285,278,246,250,242,245,250,269,293,300,332,330,334,319,302,266,298,278,257,268,247,192,199,198,164,163,166,161,159,172,176,165,140,127,108,113,137,146,150,153,149,119,105,99,99,94,97,95,87,83,66,68,75,73,65,60,52,41,40,41,,,,,,,,,,,,,,,,,,,,,,,,,,,,,,,,,,,,,,,,,,,,,,,,,,,,,,,,,,,,,,,,,,,,,,,,,,,,,,,,,,,,,,,,,,,,,,,,,,,,,,,,,
waveOut,1,8,39,38,41,42,41,50,51,48,51,51,39,34,36,42,43,48,53,54,52,76,83,96,105,117,125,145,143,168,175,167,157,169,166,167,175,175,186,205,223,304,328,343,357,350,290,297,278,294,304,321,312,383,345,349,372,371,313,364,387,355,358,369,344,314,314,295,285,283,285,276,274,248,204,172,154,155,145,160,154,152,130,114,81,60,67,72,88,93,94,99,158,197,224,238,260,240,215,185,171,136,148,134,133,134,151,134,132,133,130,98,73,67,57,41,39,39,37,37,39,31,30,32,,,,,,,,,,,,,,,,,,,,,,,,,,,,,,,,,,,,,,,,,,,,,,,,,,,,,,,,,,,,,,,,,,,,,,,,,,,,,,,,,,,,,,,,,,,,,,,,,,,,,,,,,,,,,,,,,,,,,,,,
waveOut,1,9,25,25,25,22,22,21,21,22,21,20,25,25,24,25,26,20,20,21,21,18,21,28,29,34,42,49,48,47,60,55,50,51,59,47,53,63,63,60,61,57,51,51,52,52,52,49,57,61,63,62,65,63,67,70,75,78,74,68,75,74,76,106,125,127,134,157,161,153,151,158,152,141,173,183,200,200,225,230,236,226,226,228,219,218,255,257,262,241,242,233,234,215,234,233,338,338,334,327,331,185,168,158,165,139,135,148,156,139,141,158,176,185,187,231,245,231,220,215,184,158,146,138,143,145,130,133,133,134,141,143,139,138,131,79,59,70,71,68,63,79,64,,,,,,,,,,,,,,,,,,,,,,,,,,,,,,,,,,,,,,,,,,,,,,,,,,,,,,,,,,,,,,,,,,,,,,,,,,,,,,,,,,,,,,,,,,,,,,,,,,,,,
waveIn,1,0,38,49,52,50,49,44,35,38,67,124,211,291,378,410,534,551,606,651,742,766,820,817,824,799,761,723,763,711,709,644,665,625,711,703,779,740,705,638,700,667,685,698,735,715,705,721,739,695,635,619,588,567,549,520,494,478,450,431,417,413,383,333,293,255,226,224,203,201,182,212,200,191,186,182,118,70,56,48,42,32,33,27,31,34,33,36,38,38,41,43,40,36,34,28,27,28,29,29,28,28,30,29,39,38,39,36,39,28,28,30,30,24,25,,,,,,,,,,,,,,,,,,,,,,,,,,,,,,,,,,,,,,,,,,,,,,,,,,,,,,,,,,,,,,,,,,,,,,,,,,,,,,,,,,,,,,,,,,,,,,,,,,,,,,,,,,,,,,,,,,,,,,,,,,,,,,,,,
waveIn,1,1,67,66,46,41,51,71,85,115,123,222,263,347,362,394,425,444,526,570,615,595,652,661,647,713,769,778,798,844,770,766,707,626,592,614,545,562,529,551,534,571,567,577,526,518,514,539,640,676,730,714,730,639,612,553,597,558,576,650,656,624,590,557,432,376,393,414,442,464,462,438,464,466,435,482,481,454,406,394,314,241,160,148,104,75,63,52,44,42,36,39,34,38,34,37,35,40,35,36,33,34,28,31,31,32,34,34,32,32,33,30,31,31,31,30,29,28,27,,,,,,,,,,,,,,,,,,,,,,,,,,,,,,,,,,,,,,,,,,,,,,,,,,,,,,,,,,,,,,,,,,,,,,,,,,,,,,,,,,,,,,,,,,,,,,,,,,,,,,,,,,,,,,,,,,,,,,,,,,,,,
waveIn,1,2,34,35,37,39,31,31,31,29,26,25,25,25,25,26,29,28,27,28,37,44,58,79,82,88,88,95,125,254,282,293,353,348,284,283,301,254,367,429,474,536,598,577,643,685,674,770,833,812,799,825,744,679,711,732,744,762,769,737,691,677,652,646,585,628,609,572,550,580,567,547,569,570,572,524,489,440,462,422,420,401,389,343,318,268,249,225,157,118,84,69,52,45,35,33,31,29,26,28,31,31,33,35,32,34,38,36,36,37,31,34,34,34,34,35,27,30,29,30,34,34,40,39,43,39,39,37,39,,,,,,,,,,,,,,,,,,,,,,,,,,,,,,,,,,,,,,,,,,,,,,,,,,,,,,,,,,,,,,,,,,,,,,,,,,,,,,,,,,,,,,,,,,,,,,,,,,,,,,,,,,,,,,,,,,,
waveIn,1,3,33,32,43,63,65,88,101,104,113,118,112,131,173,165,170,214,212,212,231,241,227,259,245,245,268,378,417,502,638,669,653,697,697,668,714,728,694,696,706,651,636,633,633,546,552,528,620,612,656,673,706,648,664,662,646,724,683,652,712,691,636,640,703,654,681,708,728,653,608,571,431,385,340,276,265,248,214,229,222,222,212,191,159,151,96,95,88,86,61,59,55,49,46,36,30,26,27,30,41,42,44,46,43,35,37,36,35,41,38,34,33,33,27,30,32,33,33,33,33,32,30,27,27,24,23,25,23,,,,,,,,,,,,,,,,,,,,,,,,,,,,,,,,,,,,,,,,,,,,,,,,,,,,,,,,,,,,,,,,,,,,,,,,,,,,,,,,,,,,,,,,,,,,,,,,,,,,,,,,,,,,,,,,,,,
waveIn,1,4,23,24,28,35,34,39,67,99,100,104,105,104,80,83,82,80,77,79,89,88,90,113,120,127,151,174,200,248,250,251,238,202,162,173,180,196,208,255,252,261,264,310,283,372,426,483,543,591,608,633,682,775,755,739,739,264,310,737,704,567,605,635,660,652,672,635,587,571,576,564,559,595,552,523,521,526,490,499,498,489,502,484,473,574,612,621,642,699,622,581,680,662,689,711,685,551,574,441,367,345,322,220,154,96,80,82,97,121,122,130,127,114,81,79,64,54,47,48,45,49,45,50,48,46,39,39,33,36,41,46,43,50,71,67,68,69,64,40,41,34,34,35,30,28,32,29,30,30,30,31,,,,,,,,,,,,,,,,,,,,,,,,,,,,,,,,,,,,,,,,,,,,,,,,,,,,,,,,,,,,,,,,,,,,,,,,,,,,,,,,,,,,,,,,,,,,
waveIn,1,5,25,27,27,25,25,25,31,32,31,29,32,28,26,27,33,32,39,44,60,63,88,116,127,128,146,155,169,201,228,225,239,265,271,335,424,447,430,434,420,364,355,378,431,415,417,437,447,431,443,422,392,432,473,453,465,493,487,500,525,577,588,550,514,507,500,471,512,550,571,522,556,571,496,552,548,575,576,584,564,610,613,571,563,495,497,401,401,383,366,262,247,272,262,248,238,233,250,256,256,260,262,148,128,113,98,72,53,51,38,33,31,31,31,34,33,32,30,31,27,37,38,38,35,37,29,27,27,29,30,30,32,35,35,36,37,35,35,34,,,,,,,,,,,,,,,,,,,,,,,,,,,,,,,,,,,,,,,,,,,,,,,,,,,,,,,,,,,,,,,,,,,,,,,,,,,,,,,,,,,,,,,,,,,,,,,,,,,,,,,,
waveIn,1,6,23,23,25,26,26,26,28,25,25,30,50,51,53,55,59,60,59,59,64,78,124,163,197,219,226,222,210,187,164,159,198,201,200,203,206,158,164,173,224,340,432,487,511,516,476,443,399,371,414,398,408,452,480,562,579,578,571,574,491,611,648,703,709,691,633,623,632,676,688,666,691,637,587,618,597,494,486,481,420,399,415,379,389,429,421,458,507,486,479,477,451,363,338,269,248,181,166,144,74,73,62,62,60,78,73,70,68,68,43,32,31,28,29,27,28,30,29,32,34,35,34,38,33,33,32,35,31,47,51,50,49,52,40,33,35,35,38,36,36,34,38,32,34,36,36,31,30,38,36,36,36,37,,,,,,,,,,,,,,,,,,,,,,,,,,,,,,,,,,,,,,,,,,,,,,,,,,,,,,,,,,,,,,,,,,,,,,,,,,,,,,,,,,,,,,,,,,
waveIn,1,7,40,52,56,77,79,87,81,78,67,72,67,71,72,64,63,83,81,81,80,86,77,90,128,133,153,152,158,139,149,126,147,152,158,169,192,178,197,267,322,324,373,378,486,462,457,425,432,318,328,359,382,415,374,449,438,434,529,579,538,601,594,504,453,460,400,406,466,521,540,574,615,567,546,538,519,490,482,488,463,425,441,455,448,440,423,371,330,264,292,285,305,296,288,204,229,172,157,145,137,81,65,47,36,34,29,29,28,28,32,32,33,35,35,31,29,28,28,30,28,31,35,31,36,39,39,38,40,36,34,32,33,31,31,32,35,31,32,32,29,26,28,33,30,35,34,38,36,38,37,,,,,,,,,,,,,,,,,,,,,,,,,,,,,,,,,,,,,,,,,,,,,,,,,,,,,,,,,,,,,,,,,,,,,,,,,,,,,,,,,,,,,,,,,,,,,
waveIn,1,8,48,66,85,93,97,96,106,112,110,109,121,121,108,151,162,156,161,178,301,316,374,389,401,342,346,297,322,302,276,302,353,356,404,430,483,485,506,523,522,502,506,492,486,488,446,407,461,419,404,437,479,407,415,418,450,463,493,491,504,474,429,430,451,445,467,507,482,460,461,449,510,549,593,602,589,528,480,413,387,402,358,337,329,334,253,236,229,231,215,217,206,288,288,260,250,237,115,99,79,65,54,47,45,38,33,31,37,40,38,39,41,35,33,34,39,38,43,43,42,36,35,27,25,36,36,36,36,38,34,36,34,35,32,29,28,30,33,33,30,30,29,36,37,37,38,39,27,29,28,,,,,,,,,,,,,,,,,,,,,,,,,,,,,,,,,,,,,,,,,,,,,,,,,,,,,,,,,,,,,,,,,,,,,,,,,,,,,,,,,,,,,,,,,,,,,
waveIn,1,9,24,27,28,29,30,29,28,30,31,32,32,34,45,49,63,139,146,147,149,146,114,108,105,100,157,140,144,152,176,133,154,161,158,133,126,96,121,125,144,150,161,182,212,242,253,252,259,308,319,319,324,344,335,332,335,341,357,326,382,402,432,412,472,424,472,473,517,482,479,453,452,440,473,521,542,549,536,496,497,470,452,443,460,473,542,632,641,725,724,697,632,649,578,601,641,656,671,631,600,545,511,461,469,424,395,413,465,450,429,390,332,184,174,166,155,151,101,87,58,54,83,84,86,82,80,42,38,34,30,32,32,26,26,32,32,33,36,37,33,33,34,34,34,34,34,34,31,32,34,36,32,37,38,47,47,47,46,46,54,54,58,55,58,41,40,40,,,,,,,,,,,,,,,,,,,,,,,,,,,,,,,,,,,,,,,,,,,,,,,,,,,,,,,,,,,,,,,,,,,,,,,,,,,,
doubleTap,1,0,23,24,23,23,24,32,31,32,35,35,30,35,72,72,75,75,74,80,159,197,211,216,222,232,333,344,355,351,332,342,352,348,378,452,401,398,398,372,264,190,140,116,81,70,64,57,53,44,29,29,38,39,41,40,40,31,38,35,36,35,36,27,29,30,30,28,25,26,23,27,28,29,28,29,26,27,,,,,,,,,,,,,,,,,,,,,,,,,,,,,,,,,,,,,,,,,,,,,,,,,,,,,,,,,,,,,,,,,,,,,,,,,,,,,,,,,,,,,,,,,,,,,,,,,,,,,,,,,,,,,,,,,,,,,,,,,,,,,,,,,,,,,,,,,,,,,,,,,,,,,,,,,,,,,,,,,,,,,,
doubleTap,1,1,23,22,21,21,19,22,22,24,23,39,74,84,86,88,86,97,144,251,257,258,262,252,196,197,198,179,271,281,294,295,300,209,144,99,88,67,47,47,46,45,45,115,119,122,124,124,69,61,51,51,50,48,40,42,33,32,28,,,,,,,,,,,,,,,,,,,,,,,,,,,,,,,,,,,,,,,,,,,,,,,,,,,,,,,,,,,,,,,,,,,,,,,,,,,,,,,,,,,,,,,,,,,,,,,,,,,,,,,,,,,,,,,,,,,,,,,,,,,,,,,,,,,,,,,,,,,,,,,,,,,,,,,,,,,,,,,,,,,,,,,,,,,,,,,,,,,,,,,,,
doubleTap,1,2,23,25,27,28,28,26,31,79,95,115,117,121,140,212,240,246,256,238,187,205,231,244,242,264,273,340,339,340,322,277,148,102,96,67,66,76,76,76,71,63,38,37,40,39,41,39,43,41,42,41,48,42,44,41,40,35,35,42,43,42,42,43,35,,,,,,,,,,,,,,,,,,,,,,,,,,,,,,,,,,,,,,,,,,,,,,,,,,,,,,,,,,,,,,,,,,,,,,,,,,,,,,,,,,,,,,,,,,,,,,,,,,,,,,,,,,,,,,,,,,,,,,,,,,,,,,,,,,,,,,,,,,,,,,,,,,,,,,,,,,,,,,,,,,,,,,,,,,,,,,,,,,,
doubleTap,1,3,34,31,32,32,27,33,33,32,31,33,28,24,31,31,32,32,33,30,62,132,181,186,193,218,258,266,365,379,368,331,326,222,192,247,306,369,371,374,338,281,145,113,99,77,54,76,80,82,81,79,49,49,44,45,42,45,38,39,37,39,36,45,45,47,45,46,37,39,39,39,37,38,37,35,36,40,38,44,43,43,39,39,29,36,34,37,35,36,31,31,,,,,,,,,,,,,,,,,,,,,,,,,,,,,,,,,,,,,,,,,,,,,,,,,,,,,,,,,,,,,,,,,,,,,,,,,,,,,,,,,,,,,,,,,,,,,,,,,,,,,,,,,,,,,,,,,,,,,,,,,,,,,,,,,,,,,,,,,,,,,,,,,,,,,,,,
doubleTap,1,4,32,25,25,20,21,24,44,72,102,123,126,133,135,178,178,178,173,166,133,174,189,188,205,260,306,309,312,305,246,139,114,101,86,75,59,51,45,39,42,40,41,45,40,36,37,41,39,50,49,48,44,45,37,36,40,41,44,43,44,42,46,41,40,40,39,34,34,34,35,36,38,38,43,42,46,44,45,40,,,,,,,,,,,,,,,,,,,,,,,,,,,,,,,,,,,,,,,,,,,,,,,,,,,,,,,,,,,,,,,,,,,,,,,,,,,,,,,,,,,,,,,,,,,,,,,,,,,,,,,,,,,,,,,,,,,,,,,,,,,,,,,,,,,,,,,,,,,,,,,,,,,,,,,,,,,,,,,,,,,,
doubleTap,1,5,26,30,30,31,31,30,27,24,22,24,23,23,21,25,23,25,45,81,106,119,121,147,177,189,191,199,183,141,109,159,177,176,187,224,341,349,357,351,334,176,130,99,96,68,53,45,47,49,44,43,47,42,38,37,41,38,38,40,40,38,42,41,40,43,43,43,44,43,38,35,27,27,27,30,31,33,32,37,40,39,40,40,36,30,30,,,,,,,,,,,,,,,,,,,,,,,,,,,,,,,,,,,,,,,,,,,,,,,,,,,,,,,,,,,,,,,,,,,,,,,,,,,,,,,,,,,,,,,,,,,,,,,,,,,,,,,,,,,,,,,,,,,,,,,,,,,,,,,,,,,,,,,,,,,,,,,,,,,,,,,,,,,,,
doubleTap,1,6,27,29,27,25,25,26,22,22,24,23,21,22,22,25,25,27,31,33,36,49,57,58,57,77,145,155,166,172,169,113,112,167,170,169,176,207,232,263,269,267,239,171,106,85,98,94,83,82,81,47,46,45,42,39,41,38,37,45,42,41,41,43,33,37,34,34,30,38,37,45,44,46,41,38,38,37,40,39,43,35,41,41,42,38,39,,,,,,,,,,,,,,,,,,,,,,,,,,,,,,,,,,,,,,,,,,,,,,,,,,,,,,,,,,,,,,,,,,,,,,,,,,,,,,,,,,,,,,,,,,,,,,,,,,,,,,,,,,,,,,,,,,,,,,,,,,,,,,,,,,,,,,,,,,,,,,,,,,,,,,,,,,,,,
doubleTap,1,7,29,30,29,28,29,52,62,69,72,71,64,75,161,187,198,204,202,146,123,116,107,102,128,171,230,235,241,225,189,98,76,55,48,42,39,40,36,45,40,43,41,42,37,37,52,53,55,56,57,40,38,34,39,40,41,46,47,48,45,44,37,38,26,42,42,44,43,43,31,37,35,36,37,35,35,37,38,39,40,43,42,39,,,,,,,,,,,,,,,,,,,,,,,,,,,,,,,,,,,,,,,,,,,,,,,,,,,,,,,,,,,,,,,,,,,,,,,,,,,,,,,,,,,,,,,,,,,,,,,,,,,,,,,,,,,,,,,,,,,,,,,,,,,,,,,,,,,,,,,,,,,,,,,,,,,,,,,,,,,,,,,,
doubleTap,1,8,31,34,25,22,22,30,82,105,109,110,109,113,131,149,167,171,155,128,120,146,162,159,161,160,199,210,217,220,216,144,101,82,66,53,47,52,46,47,44,41,31,33,30,28,31,31,30,32,33,29,29,28,25,24,25,25,28,27,28,31,32,33,36,36,34,34,33,34,34,33,34,33,32,,,,,,,,,,,,,,,,,,,,,,,,,,,,,,,,,,,,,,,,,,,,,,,,,,,,,,,,,,,,,,,,,,,,,,,,,,,,,,,,,,,,,,,,,,,,,,,,,,,,,,,,,,,,,,,,,,,,,,,,,,,,,,,,,,,,,,,,,,,,,,,,,,,,,,,,,,,,,,,,,,,,,,,,,
doubleTap,1,9,20,20,21,21,19,20,19,19,19,21,20,20,19,26,42,75,84,88,87,101,131,207,214,235,232,213,154,150,116,117,168,238,263,276,273,245,165,112,76,72,49,41,43,34,33,32,29,24,27,27,30,30,32,30,33,31,31,30,32,28,30,29,30,32,31,30,33,35,30,32,38,35,33,33,34,29,32,31,34,34,31,31,32,33,,,,,,,,,,,,,,,,,,,,,,,,,,,,,,,,,,,,,,,,,,,,,,,,,,,,,,,,,,,,,,,,,,,,,,,,,,,,,,,,,,,,,,,,,,,,,,,,,,,,,,,,,,,,,,,,,,,,,,,,,,,,,,,,,,,,,,,,,,,,,,,,,,,,,,,,,,,,,,
fist,2,0,21,21,20,20,21,22,22,22,23,23,25,25,26,26,30,28,31,30,30,24,26,26,27,27,28,27,26,25,26,28,28,29,30,28,26,30,29,28,29,30,26,24,21,21,26,25,26,28,36,31,33,35,36,28,29,28,24,23,24,26,29,36,45,74,83,84,85,84,60,46,127,154,166,209,214,185,254,262,286,297,325,338,497,580,657,743,867,967,989,1104,1138,1115,1172,1287,1186,1233,1277,1182,1142,1190,1214,1234,1266,1279,1271,1246,1163,1207,1172,1288,1239,1188,1080,1024,995,925,995,1003,1081,988,1134,1193,1182,1231,1360,1383,1294,1246,1074,782,454,411,386,301,277,248,193,190,188,184,142,125,81,67,69,56,46,43,42,34,32,32,33,39,57,58,58,59,63,49,56,63,69,74,77,74,76,79,71,71,75,71,68,65,63,63,64,55,57,64,55,67,71,71,66,69,58,56,55,56,53,49,46,46,37,,,,,,,,,,,,,,,,,,,,,,,,,,,,,,,,,,,,,,,,,,,,,,,
fist,2,1,34,30,33,36,42,39,42,44,46,43,43,41,39,39,44,62,64,64,92,92,92,107,159,181,215,222,223,196,169,160,154,217,323,386,416,440,513,484,535,578,713,679,787,782,891,988,1092,1086,1132,1148,1061,1040,1016,1037,992,1114,1160,1299,1279,1253,1233,1160,1197,1196,1305,1381,1427,1432,1536,1510,1378,1427,1355,1334,1289,1326,1347,1301,1204,1288,1220,1035,946,955,749,672,636,600,411,342,301,295,259,234,162,135,108,69,64,62,61,61,56,50,50,52,53,60,59,70,68,75,72,75,70,65,55,67,66,63,66,74,62,59,60,58,53,50,47,48,49,49,48,48,44,39,32,34,32,32,39,43,50,61,152,163,165,164,,,,,,,,,,,,,,,,,,,,,,,,,,,,,,,,,,,,,,,,,,,,,,,,,,,,,,,,,,,,,,,,,,,,,,,,,,,,,,,,,,,,,,,,,,,,,,
fist,2,2,35,49,104,111,112,116,112,61,50,61,126,130,130,133,134,116,114,122,140,159,136,146,144,133,182,203,202,219,248,232,229,233,244,244,230,221,216,223,212,244,261,314,335,394,574,613,767,932,995,916,966,879,798,845,1007,1023,1091,1202,1162,1032,1062,1094,1084,1112,1116,1075,1145,1027,992,1142,1174,1055,1161,1232,1143,1129,1170,1047,1009,970,932,842,848,811,908,937,938,938,954,814,704,619,523,275,235,200,182,140,121,116,114,93,83,53,46,41,38,36,36,40,38,48,50,60,64,70,67,73,81,78,73,71,68,63,64,67,66,68,58,55,56,56,53,53,60,57,57,58,55,47,46,45,40,36,38,38,38,38,41,39,38,37,,,,,,,,,,,,,,,,,,,,,,,,,,,,,,,,,,,,,,,,,,,,,,,,,,,,,,,,,,,,,,,,,,,,,,,,,,,,,,,,,,,,,,,,,,
fist,2,3,30,28,26,26,23,23,25,23,27,29,32,81,117,139,144,155,151,129,112,108,111,141,152,152,215,249,309,318,326,311,301,219,221,257,249,275,296,332,340,349,335,351,317,310,470,681,739,862,929,869,757,779,706,793,886,917,941,1005,977,1042,1153,1110,1126,1102,1013,912,1061,1033,1107,1160,1217,1185,1158,1146,1103,1076,998,1016,1043,1078,1053,1099,1128,1153,1206,1303,1396,1418,1377,1390,1347,1178,1125,1223,1185,1137,1147,1085,834,649,463,361,306,234,210,184,165,158,148,110,94,82,68,60,56,51,47,47,45,45,60,59,68,68,71,73,77,75,85,86,82,81,79,68,63,56,54,52,52,59,64,66,65,68,60,55,50,52,53,48,,,,,,,,,,,,,,,,,,,,,,,,,,,,,,,,,,,,,,,,,,,,,,,,,,,,,,,,,,,,,,,,,,,,,,,,,,,,,,,,,,,,,,,,,,,,
fist,2,4,24,24,24,28,28,30,28,31,28,34,37,37,81,120,122,123,129,108,70,65,62,67,65,71,88,123,125,140,177,170,151,184,182,150,154,179,163,163,167,170,186,196,212,241,268,269,285,397,466,533,611,655,673,703,919,993,1020,1001,1012,900,853,900,971,966,1011,1052,1166,1231,1265,1236,1204,1172,1077,1088,1130,1171,1118,1296,1337,1296,1336,1383,1261,1238,1389,1384,1344,1412,1357,1384,1379,1390,1374,1461,1350,1283,1294,1271,1326,1253,1326,1291,1268,1130,1110,1050,989,927,869,803,654,546,385,250,160,140,126,102,102,92,89,81,74,58,60,61,59,60,60,68,77,77,74,74,66,59,62,71,87,95,91,87,84,63,42,43,45,38,39,40,39,37,37,37,36,32,32,31,31,32,30,30,30,35,,,,,,,,,,,,,,,,,,,,,,,,,,,,,,,,,,,,,,,,,,,,,,,,,,,,,,,,,,,,,,,,,,,,,,,,,,,,,,
fist,2,5,25,27,29,29,28,31,30,29,28,31,27,30,34,35,31,34,35,30,29,29,24,24,26,118,126,130,147,191,337,367,372,371,372,250,222,227,251,271,287,300,311,393,504,596,646,643,590,493,352,249,267,330,358,384,400,413,428,465,511,497,497,643,590,513,598,554,558,597,571,492,667,647,651,727,733,615,734,722,767,892,1054,1120,1125,1102,1096,964,834,828,926,815,764,688,657,381,278,224,218,205,146,123,119,109,101,93,95,94,88,83,94,86,75,90,94,82,85,83,69,57,56,57,89,87,89,98,96,69,65,61,53,53,57,60,61,54,57,56,52,48,60,58,52,51,51,40,37,55,,,,,,,,,,,,,,,,,,,,,,,,,,,,,,,,,,,,,,,,,,,,,,,,,,,,,,,,,,,,,,,,,,,,,,,,,,,,,,,,,,,,,,,,,,,,,,,,
fist,2,6,52,53,56,46,43,36,36,33,32,30,29,27,31,30,28,32,36,33,34,65,89,113,137,152,230,258,276,281,318,309,324,317,335,342,310,295,320,313,289,311,318,297,281,313,327,321,342,350,378,354,364,455,523,524,546,586,582,716,694,717,679,625,405,436,376,409,413,392,444,452,409,392,392,254,205,189,151,124,94,77,79,77,70,71,66,60,47,61,61,63,62,61,53,55,54,59,61,59,58,64,75,81,77,78,78,62,59,57,58,52,49,46,53,51,51,57,70,67,65,63,58,39,31,,,,,,,,,,,,,,,,,,,,,,,,,,,,,,,,,,,,,,,,,,,,,,,,,,,,,,,,,,,,,,,,,,,,,,,,,,,,,,,,,,,,,,,,,,,,,,,,,,,,,,,,,,,,,,,,,,,,,,,
fist,2,7,24,26,27,25,26,31,30,28,30,30,25,33,33,33,37,46,41,44,46,42,41,67,72,72,90,109,153,171,186,202,219,212,216,207,193,195,178,206,242,260,255,280,282,270,274,298,287,254,254,257,268,312,398,411,404,403,426,389,393,398,463,412,518,688,721,726,741,722,582,566,565,633,639,646,657,680,739,724,767,780,785,695,693,622,584,535,537,508,555,591,532,476,423,365,258,259,243,225,181,207,198,194,194,153,97,75,64,55,54,47,43,39,35,50,52,55,59,66,56,66,84,87,83,89,104,98,96,99,99,77,72,82,85,81,83,81,68,60,56,52,49,50,53,,,,,,,,,,,,,,,,,,,,,,,,,,,,,,,,,,,,,,,,,,,,,,,,,,,,,,,,,,,,,,,,,,,,,,,,,,,,,,,,,,,,,,,,,,,,,,,,,,,
fist,2,8,25,24,22,26,27,27,27,34,31,31,35,40,35,37,37,33,28,33,30,32,33,37,34,34,33,53,79,98,119,127,124,134,132,149,189,204,280,302,309,317,464,475,577,592,606,520,480,406,389,404,442,457,473,503,523,509,530,603,603,570,621,631,621,624,662,703,751,741,789,844,832,895,939,947,912,1030,1024,1120,1113,1107,1042,967,765,721,686,510,452,396,341,281,255,214,175,131,112,94,99,97,94,106,106,91,98,104,92,95,103,94,90,90,84,83,78,74,76,76,55,55,52,44,45,39,39,41,40,,,,,,,,,,,,,,,,,,,,,,,,,,,,,,,,,,,,,,,,,,,,,,,,,,,,,,,,,,,,,,,,,,,,,,,,,,,,,,,,,,,,,,,,,,,,,,,,,,,,,,,,,,,,,,,,,,,,,
fist,2,9,33,31,31,31,27,28,25,28,27,31,29,30,26,28,28,27,28,29,30,28,30,36,36,33,34,33,26,28,31,30,29,30,28,27,33,35,32,75,154,190,214,219,215,181,147,129,124,112,103,141,160,171,202,233,265,331,349,373,464,459,421,422,400,299,318,373,389,427,452,433,441,428,473,484,505,492,532,496,452,482,514,527,519,561,518,458,417,400,452,472,492,519,587,574,590,561,551,504,429,429,509,477,437,444,405,290,255,232,173,95,75,71,62,41,33,32,39,50,65,76,79,74,69,63,51,48,54,50,44,49,49,54,62,63,59,59,48,37,33,29,27,26,26,28,27,28,28,29,,,,,,,,,,,,,,,,,,,,,,,,,,,,,,,,,,,,,,,,,,,,,,,,,,,,,,,,,,,,,,,,,,,,,,,,,,,,,,,,,,,,,,,,,,,,,,
fingersSpread,2,0,20,21,22,22,23,24,23,24,25,23,23,23,22,23,22,22,23,25,23,22,24,44,74,96,114,132,186,205,202,205,198,162,143,140,137,159,159,170,179,186,196,200,226,232,232,222,246,235,237,243,274,290,290,347,352,339,309,289,220,243,227,219,220,233,220,214,218,233,218,190,200,244,234,218,212,197,117,95,89,86,76,75,77,71,49,46,54,51,92,102,102,98,96,58,38,34,35,37,35,35,40,40,39,38,37,32,,,,,,,,,,,,,,,,,,,,,,,,,,,,,,,,,,,,,,,,,,,,,,,,,,,,,,,,,,,,,,,,,,,,,,,,,,,,,,,,,,,,,,,,,,,,,,,,,,,,,,,,,,,,,,,,,,,,,,,,,,,,,,,,,,,,,,,,
fingersSpread,2,1,21,25,26,25,25,25,22,19,22,21,22,20,23,23,27,28,29,31,37,35,44,50,51,46,46,48,48,50,52,71,85,93,102,128,134,138,150,146,135,127,117,118,118,116,112,112,100,97,117,144,149,195,206,209,202,206,181,188,176,167,166,153,143,178,187,183,183,176,136,153,199,223,222,231,213,185,143,142,134,141,130,130,127,112,98,79,77,72,75,68,55,50,52,38,33,30,28,24,21,21,21,23,26,23,30,34,35,37,39,33,31,32,31,31,32,32,29,23,24,24,23,,,,,,,,,,,,,,,,,,,,,,,,,,,,,,,,,,,,,,,,,,,,,,,,,,,,,,,,,,,,,,,,,,,,,,,,,,,,,,,,,,,,,,,,,,,,,,,,,,,,,,,,,,,,,,,,,,,,,,,,,
fingersSpread,2,2,23,24,24,21,23,24,28,27,29,30,35,32,34,34,39,35,35,33,33,24,25,29,35,49,58,61,63,65,58,57,54,59,67,82,83,88,90,89,89,106,113,119,147,163,169,178,184,182,185,174,166,238,277,281,324,340,305,273,257,246,236,240,229,233,213,199,182,199,191,155,146,150,136,146,148,149,130,105,83,77,68,55,40,37,35,31,30,30,29,27,30,27,27,26,27,24,25,25,22,24,23,23,24,25,23,25,24,24,24,23,23,22,25,25,,,,,,,,,,,,,,,,,,,,,,,,,,,,,,,,,,,,,,,,,,,,,,,,,,,,,,,,,,,,,,,,,,,,,,,,,,,,,,,,,,,,,,,,,,,,,,,,,,,,,,,,,,,,,,,,,,,,,,,,,,,,,,,,
fingersSpread,2,3,17,19,23,23,24,23,23,22,22,21,22,22,19,20,20,25,55,80,89,104,136,142,134,131,127,96,73,70,67,59,67,74,88,109,142,157,162,163,165,138,120,131,145,132,161,162,169,186,219,210,228,227,221,209,216,207,234,247,235,241,243,209,174,179,152,154,153,162,159,177,168,169,161,173,156,149,148,151,128,121,109,94,64,50,41,37,36,38,29,32,31,30,24,24,17,25,34,43,44,46,48,49,58,57,59,62,78,68,,,,,,,,,,,,,,,,,,,,,,,,,,,,,,,,,,,,,,,,,,,,,,,,,,,,,,,,,,,,,,,,,,,,,,,,,,,,,,,,,,,,,,,,,,,,,,,,,,,,,,,,,,,,,,,,,,,,,,,,,,,,,,,,,,,,,,
fingersSpread,2,4,29,28,28,27,28,25,30,29,29,27,30,37,64,99,117,131,134,129,117,111,107,114,140,144,137,129,119,82,74,74,76,84,92,93,101,103,104,110,105,104,106,101,102,132,129,130,153,152,137,136,142,136,128,123,127,130,118,172,171,171,170,175,127,127,133,147,148,160,166,160,138,125,111,99,100,111,163,184,186,198,208,186,183,203,192,189,179,159,136,171,162,156,164,157,112,108,112,94,92,87,68,54,46,37,40,38,34,31,36,40,42,43,42,37,32,30,30,29,29,23,23,23,23,24,27,29,28,30,31,31,33,33,32,31,30,25,26,26,29,31,32,31,32,28,,,,,,,,,,,,,,,,,,,,,,,,,,,,,,,,,,,,,,,,,,,,,,,,,,,,,,,,,,,,,,,,,,,,,,,,,,,,,,,,,,,,,,,,,,,,,,,,,,
fingersSpread,2,5,21,20,20,23,22,24,23,25,23,24,22,35,44,53,56,59,57,53,43,40,45,41,37,43,48,41,52,85,93,102,105,134,127,141,148,166,145,150,146,147,159,215,209,214,213,204,155,210,209,215,216,217,176,178,181,173,162,167,161,144,163,184,178,205,213,199,192,192,200,209,230,224,234,208,193,179,218,212,222,228,277,277,270,263,277,263,240,243,236,250,203,183,179,171,132,149,160,173,174,151,127,109,71,61,35,30,27,25,23,25,25,25,26,25,24,22,22,20,22,23,24,25,25,25,22,21,23,21,22,,,,,,,,,,,,,,,,,,,,,,,,,,,,,,,,,,,,,,,,,,,,,,,,,,,,,,,,,,,,,,,,,,,,,,,,,,,,,,,,,,,,,,,,,,,,,,,,,,,,,,,,,,,,,,,,,
fingersSpread,2,6,20,22,22,27,31,30,31,32,29,26,27,26,27,25,25,26,26,23,27,28,29,28,31,34,39,39,43,51,55,57,59,65,67,65,63,69,67,77,87,110,123,145,148,149,142,148,149,156,159,168,159,141,146,168,161,171,176,179,167,164,153,210,204,197,195,230,186,189,190,211,228,280,319,347,348,350,314,274,253,244,193,217,209,203,195,188,166,160,170,172,174,150,187,179,175,178,184,142,135,141,130,125,123,102,78,75,58,55,51,43,46,42,40,40,41,33,27,30,48,75,87,89,91,85,62,46,43,36,30,28,25,28,27,29,28,,,,,,,,,,,,,,,,,,,,,,,,,,,,,,,,,,,,,,,,,,,,,,,,,,,,,,,,,,,,,,,,,,,,,,,,,,,,,,,,,,,,,,,,,,,,,,,,,,,,,,,,,,,
fingersSpread,2,7,24,23,25,26,28,29,30,28,29,27,26,25,26,21,29,36,38,42,43,42,39,38,34,35,31,29,27,27,31,33,32,33,33,29,35,44,49,62,64,68,79,86,80,81,83,68,56,59,62,64,77,79,76,84,87,80,83,88,85,81,91,87,85,80,84,79,101,109,122,116,139,158,153,180,197,195,213,229,241,235,229,222,223,206,203,203,178,166,142,137,130,147,178,190,218,237,256,255,265,257,253,237,231,224,215,234,224,227,221,215,206,208,197,198,218,203,192,193,182,157,140,126,93,73,55,38,41,35,35,34,33,31,29,51,55,55,58,,,,,,,,,,,,,,,,,,,,,,,,,,,,,,,,,,,,,,,,,,,,,,,,,,,,,,,,,,,,,,,,,,,,,,,,,,,,,,,,,,,,,,,,,,,,,,,,,,,,,,,,,
fingersSpread,2,8,22,21,23,20,19,15,18,17,20,20,22,22,21,19,20,19,20,22,23,25,25,29,31,31,31,31,26,22,36,69,110,137,143,143,132,100,67,61,54,55,56,49,46,55,63,77,81,90,111,116,111,108,111,100,91,89,175,225,235,237,248,214,166,163,186,190,192,215,219,262,255,254,234,231,163,164,173,190,182,181,182,164,146,154,150,160,153,145,151,159,142,140,139,122,111,101,113,113,117,118,133,139,134,127,148,145,128,129,143,118,102,97,95,59,48,47,46,39,35,33,32,27,31,65,72,73,76,78,55,47,47,42,34,30,30,26,23,27,26,,,,,,,,,,,,,,,,,,,,,,,,,,,,,,,,,,,,,,,,,,,,,,,,,,,,,,,,,,,,,,,,,,,,,,,,,,,,,,,,,,,,,,,,,,,,,,,,,,,,,,,
fingersSpread,2,9,23,22,22,22,21,21,22,24,23,25,26,26,29,29,27,26,26,21,22,22,24,24,25,24,23,22,21,22,20,21,21,20,20,21,23,23,23,23,21,22,23,25,25,26,26,27,24,23,28,43,64,68,74,75,73,74,74,78,84,93,99,108,114,120,116,103,99,88,95,96,121,138,148,158,174,174,182,200,198,189,177,179,174,180,189,200,210,260,251,280,315,313,277,286,259,219,199,197,227,258,294,298,301,273,237,212,252,235,228,234,211,166,163,169,160,165,167,179,176,167,150,112,84,59,44,28,23,25,24,30,34,40,42,47,45,56,70,73,75,75,66,44,39,41,,,,,,,,,,,,,,,,,,,,,,,,,,,,,,,,,,,,,,,,,,,,,,,,,,,,,,,,,,,,,,,,,,,,,,,,,,,,,,,,,,,,,,,,,,,,,,,,,,
waveOut,2,0,29,28,33,32,31,29,33,28,31,30,31,28,27,25,27,27,26,29,29,26,25,27,27,31,63,67,87,107,112,105,115,134,148,169,185,205,212,228,299,330,349,397,404,582,705,732,727,756,667,534,554,717,841,826,837,802,688,652,715,777,790,786,659,559,487,486,424,398,428,374,328,316,329,236,199,156,146,98,88,90,81,73,69,59,54,54,56,47,41,38,36,31,53,64,66,68,70,56,45,42,,,,,,,,,,,,,,,,,,,,,,,,,,,,,,,,,,,,,,,,,,,,,,,,,,,,,,,,,,,,,,,,,,,,,,,,,,,,,,,,,,,,,,,,,,,,,,,,,,,,,,,,,,,,,,,,,,,,,,,,,,,,,,,,,,,,,,,,,,,,,,
waveOut,2,1,24,25,25,26,27,26,27,29,30,28,28,26,23,21,22,26,31,35,37,37,36,40,39,40,41,60,68,77,81,89,89,123,141,162,202,216,209,247,290,369,426,441,433,406,353,357,598,809,891,923,957,824,653,665,776,866,891,911,887,789,622,595,549,509,450,494,627,662,615,633,606,520,455,450,482,452,422,401,416,331,373,348,338,315,301,223,141,133,96,74,68,73,64,60,64,75,61,61,61,55,50,51,52,52,54,45,51,51,50,45,45,37,36,37,35,27,25,35,33,,,,,,,,,,,,,,,,,,,,,,,,,,,,,,,,,,,,,,,,,,,,,,,,,,,,,,,,,,,,,,,,,,,,,,,,,,,,,,,,,,,,,,,,,,,,,,,,,,,,,,,,,,,,,,,,,,,,,,,,,,,
waveOut,2,2,28,25,25,25,26,24,24,25,23,28,28,28,27,30,29,29,29,32,43,47,52,55,59,58,81,108,117,121,145,144,154,173,184,200,257,292,294,349,362,436,464,483,511,547,678,763,792,822,841,730,653,646,644,663,763,770,826,883,880,828,872,835,753,707,677,718,704,729,912,899,887,935,932,784,794,701,660,677,664,620,616,571,494,456,522,571,573,562,559,616,606,638,666,657,543,480,386,315,370,378,389,490,498,442,421,384,232,136,131,125,122,109,100,91,71,63,63,55,38,33,60,59,60,61,62,36,33,31,29,29,26,,,,,,,,,,,,,,,,,,,,,,,,,,,,,,,,,,,,,,,,,,,,,,,,,,,,,,,,,,,,,,,,,,,,,,,,,,,,,,,,,,,,,,,,,,,,,,,,,,,,,,,,,,,,,,,
waveOut,2,3,26,25,29,28,27,28,27,26,26,30,29,30,29,30,25,24,27,26,26,25,27,25,28,26,29,35,37,66,68,76,84,91,76,90,89,93,122,129,148,190,201,199,205,221,227,242,288,327,372,425,439,429,490,515,487,502,546,616,645,659,665,647,525,437,451,468,460,457,464,449,458,470,497,521,485,517,486,618,593,594,520,537,329,307,291,264,189,161,143,129,122,104,94,94,87,80,79,79,52,49,42,40,36,34,31,27,26,26,26,25,26,25,24,25,23,22,23,23,22,22,22,23,23,25,,,,,,,,,,,,,,,,,,,,,,,,,,,,,,,,,,,,,,,,,,,,,,,,,,,,,,,,,,,,,,,,,,,,,,,,,,,,,,,,,,,,,,,,,,,,,,,,,,,,,,,,,,,,,,,,,,,,,,
waveOut,2,4,20,19,23,23,22,22,24,25,24,26,29,28,24,25,28,25,27,28,27,26,26,24,25,26,27,28,28,27,29,30,38,37,39,37,34,23,35,39,48,59,78,77,88,93,92,97,107,120,122,140,152,155,152,162,163,154,157,158,170,173,173,97,107,120,193,250,375,469,517,543,729,799,841,881,908,832,733,657,611,607,605,652,705,750,755,692,657,628,651,662,712,728,729,717,742,792,807,812,765,725,633,674,614,568,499,450,255,225,203,185,137,99,75,69,64,60,58,58,34,27,29,27,25,24,27,26,25,25,24,22,20,22,23,21,21,22,21,19,,,,,,,,,,,,,,,,,,,,,,,,,,,,,,,,,,,,,,,,,,,,,,,,,,,,,,,,,,,,,,,,,,,,,,,,,,,,,,,,,,,,,,,,,,,,,,,,,,,,,,,,
waveOut,2,5,24,29,27,27,26,26,23,23,22,20,21,21,23,22,25,24,23,22,23,21,21,21,21,22,21,25,25,25,25,31,42,50,53,54,72,71,82,85,94,89,91,93,117,123,138,139,150,158,172,208,226,235,236,246,282,307,319,447,478,477,510,583,576,620,627,613,569,580,525,622,653,647,663,701,685,646,674,596,597,489,520,490,468,394,424,397,394,436,513,601,646,644,632,560,431,319,258,216,199,186,182,207,178,173,169,145,103,89,83,54,45,38,35,36,33,30,33,28,28,25,26,22,22,20,20,20,21,22,,,,,,,,,,,,,,,,,,,,,,,,,,,,,,,,,,,,,,,,,,,,,,,,,,,,,,,,,,,,,,,,,,,,,,,,,,,,,,,,,,,,,,,,,,,,,,,,,,,,,,,,,,,,,,,,,,
waveOut,2,6,24,21,24,25,26,25,26,24,21,22,27,47,48,59,64,72,64,71,66,64,66,69,75,82,94,99,101,106,112,112,121,131,133,150,192,195,208,261,268,272,332,345,347,381,390,385,398,395,398,396,400,400,380,360,363,341,331,365,375,350,344,322,305,280,287,275,302,294,326,353,383,392,390,356,351,355,342,359,377,359,314,310,329,323,310,308,285,235,227,230,233,263,244,234,232,219,190,176,159,158,152,129,125,102,74,69,65,62,51,45,40,46,39,40,36,37,28,28,29,28,28,25,28,25,27,25,28,27,28,28,28,25,24,26,25,27,26,,,,,,,,,,,,,,,,,,,,,,,,,,,,,,,,,,,,,,,,,,,,,,,,,,,,,,,,,,,,,,,,,,,,,,,,,,,,,,,,,,,,,,,,,,,,,,,,,,,,,,,,,
waveOut,2,7,23,23,24,25,23,25,27,25,25,24,21,19,21,22,21,22,25,25,25,25,26,22,22,24,30,30,32,56,74,89,99,111,126,139,137,149,153,135,123,151,149,154,195,218,208,210,209,192,260,281,327,372,384,350,341,319,284,340,378,406,407,430,408,380,358,460,467,464,445,448,333,295,260,382,399,440,448,486,458,427,395,492,534,496,530,535,465,462,470,567,606,642,600,585,466,398,401,401,515,533,600,563,542,457,470,482,464,546,644,664,600,586,517,371,295,282,321,322,314,281,270,203,162,123,117,98,80,76,70,69,95,98,98,97,93,52,42,45,68,68,67,68,63,35,37,33,34,34,34,37,43,39,41,39,33,26,28,22,24,24,,,,,,,,,,,,,,,,,,,,,,,,,,,,,,,,,,,,,,,,,,,,,,,,,,,,,,,,,,,,,,,,,,,,,,,,,,,,,,,,,,
waveOut,2,8,23,23,25,25,26,36,40,42,42,47,48,65,70,74,77,88,77,77,79,75,59,62,66,73,92,98,134,148,154,168,186,170,197,288,329,335,357,356,318,309,384,425,479,583,670,767,775,784,812,829,781,851,835,814,794,752,738,779,709,691,769,741,697,698,684,637,569,583,563,595,608,639,659,668,610,516,510,486,536,495,506,447,370,256,244,196,179,166,142,143,92,78,76,94,82,77,72,69,56,59,59,60,61,43,36,43,43,45,43,42,37,34,30,30,28,24,24,22,21,21,20,20,21,23,22,26,25,28,26,28,,,,,,,,,,,,,,,,,,,,,,,,,,,,,,,,,,,,,,,,,,,,,,,,,,,,,,,,,,,,,,,,,,,,,,,,,,,,,,,,,,,,,,,,,,,,,,,,,,,,,,,,,,,,,,,,
waveOut,2,9,22,25,25,24,23,23,21,20,20,22,21,21,23,25,24,28,41,44,45,46,48,38,38,37,49,45,46,50,58,51,51,51,46,43,46,48,62,63,65,72,81,74,73,76,67,62,68,85,100,107,123,159,164,217,309,330,413,451,442,391,396,327,327,389,418,471,593,674,707,727,716,642,553,523,519,488,455,429,372,345,370,364,377,447,425,390,392,457,463,504,564,584,569,524,540,492,520,500,497,458,459,481,464,495,496,598,595,609,658,707,758,917,943,966,938,832,618,575,408,346,341,295,266,296,293,257,235,214,155,148,148,147,129,136,132,140,137,114,81,83,56,56,51,49,39,38,44,73,109,117,121,120,106,78,66,57,52,52,32,31,35,33,30,29,32,29,29,,,,,,,,,,,,,,,,,,,,,,,,,,,,,,,,,,,,,,,,,,,,,,,,,,,,,,,,,,,,,,,,,,,,,,,,,,,
waveIn,2,0,27,28,41,45,46,50,79,77,99,110,113,122,164,169,201,214,215,215,233,276,289,333,334,364,329,336,321,325,305,315,329,368,394,379,417,424,378,365,376,332,338,344,345,328,330,287,267,246,243,238,232,266,282,308,329,369,398,378,360,327,292,221,216,215,233,210,204,203,194,157,147,124,100,87,86,74,67,71,65,71,74,72,64,58,54,50,49,50,45,32,31,31,30,32,35,39,38,38,35,40,35,40,42,43,37,37,32,28,29,31,28,27,26,29,23,,,,,,,,,,,,,,,,,,,,,,,,,,,,,,,,,,,,,,,,,,,,,,,,,,,,,,,,,,,,,,,,,,,,,,,,,,,,,,,,,,,,,,,,,,,,,,,,,,,,,,,,,,,,,,,,,,,,,,,,,,,,,,,
waveIn,2,1,27,29,26,30,34,34,38,37,38,38,40,38,41,83,164,226,235,236,233,188,108,93,104,110,104,114,134,135,129,139,144,128,143,160,196,191,214,230,239,218,248,250,252,255,279,290,315,324,329,369,393,423,425,423,411,374,342,381,403,363,390,389,360,321,353,338,330,352,377,381,373,383,352,353,336,338,320,302,261,233,200,171,145,147,135,128,99,89,61,57,65,64,68,78,90,110,111,112,106,100,66,67,61,63,69,74,89,93,95,88,83,64,53,41,37,34,31,40,39,44,43,42,34,36,44,44,45,44,41,25,28,29,41,42,42,41,41,29,28,28,26,,,,,,,,,,,,,,,,,,,,,,,,,,,,,,,,,,,,,,,,,,,,,,,,,,,,,,,,,,,,,,,,,,,,,,,,,,,,,,,,,,,,,,,,,,,,,,,,,,,,,
waveIn,2,2,25,28,29,28,27,27,24,23,26,36,39,52,72,84,108,118,164,180,192,189,211,241,269,279,306,315,317,342,362,360,361,358,402,397,410,442,474,403,476,499,473,450,475,396,388,385,356,335,374,387,387,420,406,392,351,345,333,367,375,392,402,402,427,387,377,359,359,307,329,348,347,314,303,277,196,195,189,182,179,177,158,146,117,96,77,68,56,50,46,43,43,52,47,45,47,51,46,42,60,62,58,62,67,54,58,59,54,47,46,40,38,42,40,38,35,44,40,41,42,41,30,29,28,,,,,,,,,,,,,,,,,,,,,,,,,,,,,,,,,,,,,,,,,,,,,,,,,,,,,,,,,,,,,,,,,,,,,,,,,,,,,,,,,,,,,,,,,,,,,,,,,,,,,,,,,,,,,,,,,,,,,,,
waveIn,2,3,40,42,39,37,25,27,28,30,38,38,39,42,40,35,38,37,32,32,32,37,42,49,60,67,84,110,121,137,161,177,211,209,200,186,191,157,188,238,319,336,375,399,393,393,385,397,447,455,425,438,450,380,364,404,403,392,421,462,433,481,473,472,472,490,470,449,434,377,344,288,286,271,280,252,233,205,177,186,176,163,155,137,104,113,110,103,98,88,67,64,60,60,53,37,36,36,29,28,27,32,35,38,38,39,37,34,30,33,32,31,32,32,30,34,32,30,31,32,32,31,,,,,,,,,,,,,,,,,,,,,,,,,,,,,,,,,,,,,,,,,,,,,,,,,,,,,,,,,,,,,,,,,,,,,,,,,,,,,,,,,,,,,,,,,,,,,,,,,,,,,,,,,,,,,,,,,,,,,,,,,,
waveIn,2,4,32,42,44,40,42,41,34,30,27,24,25,23,24,28,28,28,38,44,48,54,59,54,52,47,39,31,33,29,26,26,28,46,73,105,110,112,109,100,73,89,107,134,153,162,192,221,288,329,349,346,339,302,266,257,263,299,315,378,427,438,451,456,421,391,432,454,458,490,521,485,447,443,438,384,387,409,401,359,398,426,418,421,424,431,388,362,356,371,363,386,377,378,406,369,361,379,361,317,300,299,300,310,288,312,312,283,269,274,246,210,213,190,157,168,161,131,130,126,82,53,50,44,49,49,54,55,56,47,45,39,40,38,42,43,45,45,43,36,33,28,26,31,31,33,42,39,39,39,,,,,,,,,,,,,,,,,,,,,,,,,,,,,,,,,,,,,,,,,,,,,,,,,,,,,,,,,,,,,,,,,,,,,,,,,,,,,,,,,,,,,,,,,,,,,,
waveIn,2,5,39,30,29,28,27,25,23,22,24,24,26,27,27,26,28,26,28,29,29,29,30,30,29,29,27,28,27,28,29,31,30,30,32,33,35,35,35,32,30,25,25,26,24,26,29,38,41,54,78,99,127,160,163,176,189,218,215,281,301,346,365,369,352,346,334,309,320,326,332,308,313,321,303,314,331,401,448,482,498,481,436,369,321,338,385,365,376,400,353,344,349,420,413,441,420,432,389,394,374,364,347,305,264,218,200,173,153,129,122,112,79,73,71,58,65,62,52,58,59,47,45,44,40,38,39,43,43,42,42,49,54,56,56,57,53,51,56,53,53,53,49,40,39,35,28,27,29,35,36,38,39,,,,,,,,,,,,,,,,,,,,,,,,,,,,,,,,,,,,,,,,,,,,,,,,,,,,,,,,,,,,,,,,,,,,,,,,,,,,,,,,,,,,,,,,,,,
waveIn,2,6,30,32,33,31,30,30,31,26,28,30,35,44,84,153,167,181,185,179,130,115,167,184,184,209,230,194,191,231,224,227,245,278,278,299,340,353,355,363,356,381,366,364,346,351,416,532,568,568,574,492,361,267,275,229,210,219,233,222,240,236,277,307,357,391,438,451,465,466,464,440,449,448,425,411,418,360,313,348,333,305,295,285,185,148,100,90,77,58,44,41,39,38,37,39,41,39,45,44,51,49,54,49,47,37,36,26,28,28,32,31,32,32,39,36,35,35,33,26,24,28,27,,,,,,,,,,,,,,,,,,,,,,,,,,,,,,,,,,,,,,,,,,,,,,,,,,,,,,,,,,,,,,,,,,,,,,,,,,,,,,,,,,,,,,,,,,,,,,,,,,,,,,,,,,,,,,,,,,,,,,,,,
waveIn,2,7,29,25,26,25,27,25,25,27,26,25,25,25,24,23,23,25,26,25,25,25,25,25,25,37,124,149,156,164,162,110,76,61,41,59,61,65,69,78,123,162,173,181,201,189,199,214,250,261,286,299,317,308,337,334,349,345,364,339,321,285,293,298,313,326,343,350,318,304,318,339,310,313,302,305,250,236,221,255,242,256,280,284,291,290,288,263,266,226,190,195,207,211,208,235,232,245,238,228,203,171,132,114,91,78,68,59,48,44,33,37,34,32,37,47,60,64,65,63,59,46,42,44,44,40,34,29,28,25,30,30,39,39,52,50,51,47,47,31,34,34,30,28,34,34,36,,,,,,,,,,,,,,,,,,,,,,,,,,,,,,,,,,,,,,,,,,,,,,,,,,,,,,,,,,,,,,,,,,,,,,,,,,,,,,,,,,,,,,,,,,,,,,,,,
waveIn,2,8,27,31,26,31,29,31,27,29,24,24,22,22,23,23,24,32,33,36,38,41,38,39,34,34,34,55,69,85,112,136,146,179,214,222,240,243,237,250,255,268,275,276,251,248,250,305,313,362,383,382,339,348,335,339,349,365,350,341,338,314,363,382,375,416,467,420,406,416,367,395,395,401,405,395,308,318,307,279,280,267,262,256,236,212,196,158,139,116,103,77,63,57,52,46,40,39,37,28,28,29,37,43,45,50,54,51,50,49,48,42,41,38,36,30,33,31,26,,,,,,,,,,,,,,,,,,,,,,,,,,,,,,,,,,,,,,,,,,,,,,,,,,,,,,,,,,,,,,,,,,,,,,,,,,,,,,,,,,,,,,,,,,,,,,,,,,,,,,,,,,,,,,,,,,,,,,,,,,,,,
waveIn,2,9,41,29,30,30,28,25,26,27,28,28,29,29,26,25,40,44,48,49,53,60,93,96,111,129,154,160,173,221,224,215,226,239,255,330,330,60,93,383,436,469,514,472,466,463,500,445,481,504,469,419,438,413,358,364,331,321,332,336,382,397,416,412,402,373,366,322,311,318,284,270,261,240,209,185,162,126,100,82,68,59,44,40,32,30,28,28,28,33,38,39,37,35,41,38,41,46,47,37,38,41,44,42,42,44,44,37,39,41,40,35,38,36,38,39,38,39,39,38,38,38,35,35,31,,,,,,,,,,,,,,,,,,,,,,,,,,,,,,,,,,,,,,,,,,,,,,,,,,,,,,,,,,,,,,,,,,,,,,,,,,,,,,,,,,,,,,,,,,,,,,,,,,,,,,,,,,,,,,,,,,,,,,,
doubleTap,2,0,28,24,26,26,22,23,25,26,27,27,27,30,28,27,30,28,25,24,25,22,23,21,21,22,23,25,25,26,28,27,28,47,62,64,65,74,82,81,96,101,124,148,156,159,165,147,146,148,144,149,150,124,106,95,69,64,51,47,47,52,51,49,47,41,30,30,35,33,33,34,36,31,33,35,32,28,31,32,31,31,33,30,27,30,29,27,27,26,25,25,30,32,33,31,31,29,26,29,30,30,30,31,28,33,35,31,30,31,26,24,27,29,29,30,31,31,31,29,28,27,26,24,25,24,25,22,27,27,26,27,26,22,23,25,24,26,27,26,27,28,29,27,29,29,28,28,29,29,26,28,25,24,24,26,25,27,27,39,53,75,87,107,117,148,159,165,154,145,122,146,202,243,257,270,280,257,223,217,206,171,173,209,206,199,233,211,181,175,169,98,99,79,100,103,110,141,144,129,126,119,65,59,65,62,60,60,54,48,47,50,57,57,61,63,83,81,81,78,76,51,48,50,44,44,43,44,52,49,49,53,49,38,39,39,34,33,33,31,32,29,28,25
doubleTap,2,1,22,19,22,23,23,23,25,24,24,24,25,29,28,28,29,30,41,44,45,45,46,33,31,31,31,31,31,37,35,34,34,33,28,31,32,32,34,33,29,29,29,29,74,84,139,161,187,202,232,214,203,197,192,166,178,194,187,181,189,215,233,252,259,282,267,248,246,314,326,314,312,292,197,113,109,96,102,111,109,102,95,89,72,68,68,65,54,74,79,89,90,93,79,65,64,71,72,75,77,65,58,55,45,41,41,39,34,35,36,,,,,,,,,,,,,,,,,,,,,,,,,,,,,,,,,,,,,,,,,,,,,,,,,,,,,,,,,,,,,,,,,,,,,,,,,,,,,,,,,,,,,,,,,,,,,,,,,,,,,,,,,,,,,,,,,,,,,,,,,,,,,,,,,,,,,
doubleTap,2,2,26,25,25,27,23,90,184,215,222,227,212,139,84,64,49,39,38,36,33,31,35,34,32,32,34,31,29,30,29,29,25,29,30,32,30,33,35,39,39,45,50,117,176,183,191,210,212,182,178,176,164,139,146,152,192,227,240,234,249,293,287,335,378,399,357,336,277,222,157,151,149,144,129,130,125,148,143,158,161,161,150,157,134,129,109,117,126,125,124,127,107,84,81,77,82,82,79,72,66,64,75,84,86,86,79,64,51,57,65,74,87,106,109,106,102,97,78,74,88,95,,,,,,,,,,,,,,,,,,,,,,,,,,,,,,,,,,,,,,,,,,,,,,,,,,,,,,,,,,,,,,,,,,,,,,,,,,,,,,,,,,,,,,,,,,,,,,,,,,,,,,,,,,,,,,,,,,,,,,,,,,
doubleTap,2,3,30,37,38,37,37,37,33,35,33,34,33,29,25,32,31,32,31,29,24,24,30,32,36,35,34,33,32,30,34,34,31,31,29,24,25,24,31,32,34,33,33,31,31,30,30,29,25,24,26,29,56,65,91,103,112,111,119,120,115,109,115,188,223,249,260,262,220,200,170,153,139,121,73,56,50,56,55,51,49,53,43,44,45,46,42,42,41,40,47,47,52,51,57,48,47,42,43,40,36,36,30,34,34,34,33,34,34,31,37,39,40,37,38,39,37,38,38,38,32,35,33,33,33,33,32,31,,,,,,,,,,,,,,,,,,,,,,,,,,,,,,,,,,,,,,,,,,,,,,,,,,,,,,,,,,,,,,,,,,,,,,,,,,,,,,,,,,,,,,,,,,,,,,,,,,,,,,,,,,,,,,,,,,,,
doubleTap,2,4,25,25,23,22,22,22,21,23,25,24,23,26,27,25,28,30,28,25,25,22,23,24,23,24,28,43,52,77,97,98,93,88,68,35,26,23,25,40,61,107,117,126,138,143,117,108,101,96,127,152,159,163,179,164,155,154,160,131,129,117,113,97,95,68,52,43,42,36,35,30,34,32,33,38,40,36,32,35,32,31,32,31,32,33,31,30,37,33,31,32,32,26,27,26,28,28,27,30,28,32,37,38,41,43,40,35,34,,,,,,,,,,,,,,,,,,,,,,,,,,,,,,,,,,,,,,,,,,,,,,,,,,,,,,,,,,,,,,,,,,,,,,,,,,,,,,,,,,,,,,,,,,,,,,,,,,,,,,,,,,,,,,,,,,,,,,,,,,,,,,,,,,,,,,,
doubleTap,2,6,27,25,25,25,23,24,25,26,26,26,26,27,26,27,27,24,21,23,22,21,23,24,24,23,24,25,25,26,37,51,53,54,55,49,37,33,40,42,64,83,95,109,120,121,116,107,105,105,151,187,192,189,189,155,117,131,131,124,116,103,73,60,56,45,38,33,33,29,29,28,29,28,29,25,25,28,27,28,30,30,28,27,26,27,32,32,33,35,33,28,27,30,28,30,32,31,28,27,25,25,24,27,28,28,30,31,30,32,32,27,28,32,31,32,32,32,26,24,24,24,25,,,,,,,,,,,,,,,,,,,,,,,,,,,,,,,,,,,,,,,,,,,,,,,,,,,,,,,,,,,,,,,,,,,,,,,,,,,,,,,,,,,,,,,,,,,,,,,,,,,,,,,,,,,,,,,,,,,,,,,,,
doubleTap,2,7,23,22,21,21,21,25,27,28,28,32,29,29,31,32,27,26,27,26,25,25,29,28,26,29,29,29,32,32,29,36,34,33,56,63,68,75,87,87,89,92,87,76,103,148,157,177,185,183,159,153,139,132,110,94,79,69,63,55,50,49,39,35,37,35,35,32,33,31,30,29,32,31,32,35,34,31,29,31,26,27,27,33,29,30,34,35,31,32,32,29,29,30,29,30,29,28,28,28,29,28,30,28,29,26,26,24,26,25,27,27,29,34,35,34,35,34,,,,,,,,,,,,,,,,,,,,,,,,,,,,,,,,,,,,,,,,,,,,,,,,,,,,,,,,,,,,,,,,,,,,,,,,,,,,,,,,,,,,,,,,,,,,,,,,,,,,,,,,,,,,,,,,,,,,,,,,,,,,,,
doubleTap,2,8,27,25,26,26,27,22,24,26,28,26,31,33,38,49,59,59,61,65,102,105,110,112,112,96,130,138,137,146,137,111,100,104,97,100,92,99,94,84,73,64,47,46,42,41,42,41,43,45,48,48,47,47,43,39,41,36,34,34,36,33,38,37,41,41,40,35,32,27,25,25,27,28,28,28,29,28,34,35,37,36,37,34,33,28,26,24,20,23,25,31,31,32,31,29,24,26,23,23,24,25,22,,,,,,,,,,,,,,,,,,,,,,,,,,,,,,,,,,,,,,,,,,,,,,,,,,,,,,,,,,,,,,,,,,,,,,,,,,,,,,,,,,,,,,,,,,,,,,,,,,,,,,,,,,,,,,,,,,,,,,,,,,,,,,,,,,,,,,,,,,,,,
doubleTap,2,9,27,30,29,27,28,27,25,25,26,23,26,26,29,27,29,29,30,30,30,29,27,27,23,23,24,27,29,31,34,33,35,33,32,27,28,21,23,25,26,26,27,28,30,60,67,68,74,85,79,76,83,95,130,227,257,270,278,267,206,179,161,158,146,121,125,121,95,95,90,66,58,49,47,48,32,32,32,32,28,29,28,26,29,26,26,28,31,29,33,36,36,37,35,32,28,27,26,28,30,30,39,36,37,38,40,34,55,59,72,77,85,84,94,98,98,92,82,115,188,201,215,248,247,216,215,208,196,187,164,148,149,113,102,93,92,72,68,53,52,65,72,92,127,132,125,126,114,73,58,69,69,65,80,83,79,69,68,48,44,35,37,34,35,39,37,35,36,34,33,,,,,,,,,,,,,,,,,,,,,,,,,,,,,,,,,,,,,,,,,,,,,,,,,,,,,,,,,,,,,,,,,,,,,,,,,
fist,3,0,28,29,30,29,29,29,47,152,572,717,774,786,790,584,411,292,259,337,547,872,1083,1285,1459,1480,1413,1454,1513,1414,1374,1336,1357,1255,1242,1374,1448,1332,1287,1382,1292,1201,1192,1243,1195,1203,1260,1347,1369,1357,1424,1383,1305,1224,1189,1172,1244,1233,1250,1276,1312,1343,1374,1422,1471,1416,1422,1421,1322,1246,1234,1221,1186,1186,1102,950,698,509,345,256,231,200,195,197,208,208,215,220,216,168,156,142,124,107,115,111,95,93,93,72,69,61,56,48,46,48,53,56,62,62,60,60,59,50,50,56,51,,,,,,,,,,,,,,,,,,,,,,,,,,,,,,,,,,,,,,,,,,,,,,,,,,,,,,,,,,,,,,,,,,,,,,,,,,,,,,,,,,,,,,,,,,,,,,,,,,,,,,,,,,,,,,,,,,,,,,,,,,,,,,,
fist,3,1,27,26,26,25,25,25,26,27,27,26,26,26,25,25,27,27,28,28,28,25,27,27,26,32,41,50,55,60,120,128,135,162,177,166,212,368,454,474,482,545,544,566,653,674,705,789,884,908,1048,1085,1090,1101,1266,1244,1254,1439,1536,1507,1539,1515,1349,1198,1147,1184,1237,1392,1426,1370,1334,1378,1297,1348,1414,1397,1296,1260,1303,1286,1296,1403,1441,1357,1343,1382,1287,1159,1036,890,616,468,286,243,209,174,176,183,179,191,186,179,169,165,173,176,163,171,172,160,152,146,131,117,98,92,81,74,68,63,54,51,44,55,56,56,55,64,58,56,56,58,51,55,48,48,52,50,44,45,48,39,,,,,,,,,,,,,,,,,,,,,,,,,,,,,,,,,,,,,,,,,,,,,,,,,,,,,,,,,,,,,,,,,,,,,,,,,,,,,,,,,,,,,,,,,,,,,,,,,,,,,,
fist,3,2,29,32,37,39,41,38,39,35,35,31,30,28,28,34,34,36,36,34,27,28,28,26,30,31,32,32,31,31,29,28,25,26,21,25,36,39,42,56,139,169,183,252,265,254,263,284,265,299,296,280,273,323,303,295,308,296,271,438,536,550,634,773,747,769,851,974,1038,1162,1297,1454,1456,1436,1480,1467,1374,1384,1431,1314,1246,1169,1223,1152,1209,1258,1361,1280,1364,1400,1405,1418,1420,1409,1409,1353,1263,1250,1122,960,846,728,534,376,291,250,195,187,167,141,126,155,151,159,171,174,154,180,181,181,179,181,158,151,148,147,147,150,145,137,132,123,113,106,106,108,105,93,94,83,61,66,68,67,66,67,63,,,,,,,,,,,,,,,,,,,,,,,,,,,,,,,,,,,,,,,,,,,,,,,,,,,,,,,,,,,,,,,,,,,,,,,,,,,,,,,,,,,,,,,,,,,,,,,,,
fist,3,3,48,48,40,38,32,28,30,26,29,30,30,31,32,33,32,34,37,37,41,42,40,37,96,174,197,200,205,201,232,236,353,457,468,452,464,418,324,307,365,488,559,659,811,973,983,1092,1213,1311,1342,1527,1597,1522,1449,1490,1362,1190,1232,1211,1264,1209,1306,1280,1367,1287,1337,1243,1324,1361,1373,1356,1524,1520,1425,1346,1304,1062,859,690,448,235,181,122,112,110,96,102,103,121,116,122,116,118,110,109,111,107,119,110,106,91,97,76,86,86,90,81,85,83,85,106,110,127,129,130,109,120,104,,,,,,,,,,,,,,,,,,,,,,,,,,,,,,,,,,,,,,,,,,,,,,,,,,,,,,,,,,,,,,,,,,,,,,,,,,,,,,,,,,,,,,,,,,,,,,,,,,,,,,,,,,,,,,,,,,,,,,,,,,,,,
fist,3,4,27,27,27,24,27,26,24,24,26,26,30,34,35,73,268,305,338,343,375,317,297,275,282,258,220,240,227,233,262,264,244,277,265,273,344,383,391,517,656,743,819,846,866,900,942,1017,1196,1320,1284,1345,1404,1328,1333,1436,1359,1286,1426,1459,1427,1476,1492,1355,1314,1419,1408,1398,1385,1349,1176,1247,1245,1258,1225,1198,1018,924,793,606,486,400,253,216,160,138,122,107,106,119,124,117,98,101,104,100,102,113,118,105,109,109,100,91,95,83,83,80,75,67,70,62,65,68,67,62,64,58,57,51,51,43,46,47,47,45,52,48,46,46,46,40,39,37,36,35,41,41,38,40,47,45,45,47,46,41,36,39,44,48,49,58,56,51,45,47,36,41,40,41,35,35,27,30,28,38,39,44,43,47,42,42,42,44,41,40,39,36,33,,,,,,,,,,,,,,,,,,,,,,,,,,,,,,,,,,,,,,,,,,,,,,,,,,,,,,,,,,,,,,,,,
fist,3,5,59,64,70,70,70,58,59,51,58,62,71,66,68,64,58,47,64,70,69,75,100,95,101,141,141,134,146,211,217,222,233,226,240,239,268,261,323,279,277,285,295,251,245,261,251,309,344,404,628,751,815,857,1021,1053,1093,1073,1219,1179,1228,1291,1405,1390,1415,1343,1380,1330,1303,1251,1421,1352,1362,1331,1391,1302,1395,1450,1554,1533,1451,1324,1245,1130,1130,1225,1264,1254,1328,1378,1351,1379,1421,1313,1201,1118,1010,902,932,970,1037,1042,1050,979,890,727,679,580,506,457,427,252,190,171,131,116,114,99,96,107,109,89,86,75,69,71,68,70,71,73,77,86,86,84,81,72,62,65,65,57,59,59,52,64,65,63,61,59,45,52,58,60,61,64,59,52,47,48,44,41,48,48,49,50,52,50,,,,,,,,,,,,,,,,,,,,,,,,,,,,,,,,,,,,,,,,,,,,,,,,,,,,,,,,,,,,,,,,,,,,,,,,,,,,,,
fist,3,6,28,29,29,34,36,34,33,33,27,26,27,27,28,31,40,59,60,81,126,190,220,241,245,264,251,255,256,256,220,249,269,264,268,291,274,243,312,372,369,363,396,386,331,318,397,520,525,557,591,573,532,627,845,963,1046,1142,1236,1258,1426,1485,1567,1556,1467,1327,1345,1238,1300,1441,1483,1517,1549,1435,1335,1286,1245,1174,1227,1244,1240,1197,1193,1108,997,931,746,608,533,480,255,217,177,142,109,71,83,91,92,98,102,98,113,115,110,107,98,72,68,68,60,64,62,57,52,52,56,54,62,61,61,50,53,45,49,55,58,57,65,63,58,58,58,51,48,49,,,,,,,,,,,,,,,,,,,,,,,,,,,,,,,,,,,,,,,,,,,,,,,,,,,,,,,,,,,,,,,,,,,,,,,,,,,,,,,,,,,,,,,,,,,,,,,,,,,,,,,,,,,,
fist,3,7,35,35,39,34,40,37,38,39,38,32,36,34,36,36,37,34,36,29,31,30,29,29,32,32,89,102,103,106,109,86,80,89,96,129,194,224,236,236,254,230,240,255,276,256,246,226,243,235,231,279,297,281,296,369,369,402,421,445,439,483,527,688,796,901,979,1023,1011,1077,1260,1250,1272,1316,1342,1259,1369,1366,1447,1423,1359,1324,1376,1310,1251,1241,1291,1302,1260,1302,1298,1233,1160,1230,1122,1177,1057,1027,797,776,550,477,273,272,265,149,117,103,84,74,67,73,75,94,102,102,104,106,95,90,94,92,88,99,98,100,100,97,79,79,73,65,73,72,69,71,70,65,60,58,52,55,53,,,,,,,,,,,,,,,,,,,,,,,,,,,,,,,,,,,,,,,,,,,,,,,,,,,,,,,,,,,,,,,,,,,,,,,,,,,,,,,,,,,,,,,,,,,,,,,,,,,,,
fist,3,8,38,45,45,43,41,40,33,38,40,43,43,43,44,43,40,43,47,42,42,42,38,34,34,35,35,37,34,42,56,58,57,67,110,184,234,244,256,254,210,180,175,161,144,146,150,159,158,184,198,185,171,174,157,164,171,193,227,252,310,363,383,378,413,366,380,482,492,584,761,835,843,987,1085,1028,1102,1098,1076,1032,1199,1285,1346,1349,1350,1325,1298,1382,1407,1470,1419,1429,1438,1499,1445,1407,1362,1206,1009,951,872,638,546,495,289,241,189,144,121,88,91,92,85,83,90,89,86,84,89,90,101,105,104,102,105,91,90,95,91,84,85,85,73,79,83,77,67,77,68,59,62,67,60,68,,,,,,,,,,,,,,,,,,,,,,,,,,,,,,,,,,,,,,,,,,,,,,,,,,,,,,,,,,,,,,,,,,,,,,,,,,,,,,,,,,,,,,,,,,,,,,,,,,,,
fist,3,9,25,25,26,21,26,27,27,28,29,27,25,30,33,43,43,45,45,65,61,68,82,85,120,135,178,180,180,180,195,190,226,232,209,233,229,199,256,326,306,355,419,480,527,537,608,600,715,799,857,936,1146,1207,1329,1395,1499,1446,1418,1391,1420,1381,1296,1291,1304,1258,1189,1363,1396,1332,1319,1384,1264,1220,1222,1194,1014,955,814,610,472,406,235,200,134,112,93,79,72,62,63,71,71,68,70,72,65,67,67,66,59,60,54,49,59,57,54,63,65,57,59,73,64,66,67,68,56,61,57,55,51,53,45,50,50,49,40,43,38,,,,,,,,,,,,,,,,,,,,,,,,,,,,,,,,,,,,,,,,,,,,,,,,,,,,,,,,,,,,,,,,,,,,,,,,,,,,,,,,,,,,,,,,,,,,,,,,,,,,,,,,,,,,,,,,,,,
fingersSpread,3,0,22,22,22,23,22,22,21,21,21,23,23,22,22,20,18,38,43,45,112,153,240,316,372,393,445,445,407,406,410,371,379,428,402,399,410,376,329,339,335,313,351,350,364,373,414,410,419,425,418,403,382,410,395,394,363,356,302,300,273,291,271,256,218,198,134,124,122,112,99,89,79,76,101,108,108,110,115,90,84,83,82,69,63,58,54,57,50,50,48,49,46,46,48,51,49,,,,,,,,,,,,,,,,,,,,,,,,,,,,,,,,,,,,,,,,,,,,,,,,,,,,,,,,,,,,,,,,,,,,,,,,,,,,,,,,,,,,,,,,,,,,,,,,,,,,,,,,,,,,,,,,,,,,,,,,,,,,,,,,,,,,,,,,,,,,,,,,,,,
fingersSpread,3,1,37,41,35,34,31,31,24,30,29,28,29,29,24,24,27,32,44,63,76,110,124,131,143,142,128,160,181,179,208,227,211,210,226,210,260,280,293,322,362,363,378,396,417,396,359,350,368,335,337,411,429,407,442,477,438,461,481,459,513,508,462,457,461,369,366,379,336,352,400,387,403,437,426,446,456,448,422,379,266,231,174,132,126,110,104,85,83,70,61,51,54,115,122,123,124,127,74,60,55,52,33,31,28,27,24,24,20,21,,,,,,,,,,,,,,,,,,,,,,,,,,,,,,,,,,,,,,,,,,,,,,,,,,,,,,,,,,,,,,,,,,,,,,,,,,,,,,,,,,,,,,,,,,,,,,,,,,,,,,,,,,,,,,,,,,,,,,,,,,,,,,,,,,,,,,
fingersSpread,3,2,28,27,28,30,28,23,23,25,22,21,22,22,22,24,23,24,25,25,26,27,28,46,53,92,144,176,252,278,286,288,280,226,263,269,280,330,330,292,296,275,233,252,298,436,467,507,521,525,443,461,478,504,514,498,472,478,445,439,444,530,513,535,542,615,617,598,602,641,604,587,572,548,533,521,502,553,557,497,538,540,490,518,523,474,408,412,365,334,285,262,251,220,228,206,197,150,134,105,100,90,85,89,105,119,117,121,109,91,76,76,67,69,53,43,41,39,25,24,22,24,22,22,,,,,,,,,,,,,,,,,,,,,,,,,,,,,,,,,,,,,,,,,,,,,,,,,,,,,,,,,,,,,,,,,,,,,,,,,,,,,,,,,,,,,,,,,,,,,,,,,,,,,,,,,,,,,,,,,,,,,,,,
fingersSpread,3,3,20,22,23,28,29,30,28,30,22,24,26,27,37,40,46,51,57,68,78,85,94,113,107,110,129,133,117,123,142,127,132,141,141,148,151,144,165,186,172,207,224,240,245,258,259,308,316,339,356,408,371,390,383,404,381,432,490,577,640,630,623,648,585,518,512,490,402,409,411,431,464,452,451,505,544,532,564,558,503,475,473,423,434,483,453,480,476,459,375,397,346,330,314,301,234,195,177,122,124,113,92,84,83,80,80,85,87,91,100,100,96,93,82,54,60,55,63,62,62,50,53,42,42,41,40,,,,,,,,,,,,,,,,,,,,,,,,,,,,,,,,,,,,,,,,,,,,,,,,,,,,,,,,,,,,,,,,,,,,,,,,,,,,,,,,,,,,,,,,,,,,,,,,,,,,,,,,,,,,,,,,,,,,,
fingersSpread,3,4,21,23,23,24,23,27,24,26,25,71,71,73,73,74,37,35,45,46,56,55,56,48,50,61,91,125,144,187,220,244,236,258,244,240,228,251,229,267,322,322,350,362,350,319,377,368,398,427,446,423,471,506,494,473,462,429,368,378,395,393,421,414,455,474,472,503,504,476,434,432,330,312,240,228,208,167,162,157,134,123,119,92,75,71,55,46,36,33,29,26,21,26,33,33,34,35,32,27,26,26,26,26,22,21,20,20,18,18,18,18,19,18,22,,,,,,,,,,,,,,,,,,,,,,,,,,,,,,,,,,,,,,,,,,,,,,,,,,,,,,,,,,,,,,,,,,,,,,,,,,,,,,,,,,,,,,,,,,,,,,,,,,,,,,,,,,,,,,,,,,,,,,,,,,,,,,,,,
fingersSpread,3,5,23,19,20,21,20,20,20,18,19,20,21,21,22,20,22,22,23,23,24,23,24,26,32,38,50,74,75,78,80,133,151,165,175,183,155,141,169,170,187,205,226,225,264,311,331,334,342,374,403,427,419,427,407,366,355,426,444,436,444,438,453,495,543,550,538,536,495,536,538,589,561,585,545,522,527,503,462,394,431,361,370,400,434,407,392,423,391,443,439,482,491,502,446,454,441,391,388,386,372,354,349,301,256,223,163,135,145,131,123,114,99,73,66,61,58,54,52,51,56,,,,,,,,,,,,,,,,,,,,,,,,,,,,,,,,,,,,,,,,,,,,,,,,,,,,,,,,,,,,,,,,,,,,,,,,,,,,,,,,,,,,,,,,,,,,,,,,,,,,,,,,,,,,,,,,,,,,,,,,,,,
fingersSpread,3,6,22,26,24,21,22,20,18,19,21,21,21,18,19,19,19,20,19,22,20,21,20,22,20,21,20,20,25,24,26,28,30,29,34,33,54,78,78,79,88,90,88,96,104,113,119,134,162,174,199,214,237,268,301,300,325,338,323,340,349,349,397,392,403,410,505,487,542,552,564,470,476,511,554,576,624,599,564,506,506,526,569,555,605,648,648,620,636,608,528,506,523,510,474,494,448,480,523,516,497,497,468,399,408,409,398,348,304,268,227,183,158,128,104,91,111,103,96,121,212,206,209,212,199,93,71,56,44,37,28,25,23,22,20,21,21,21,20,23,22,22,23,,,,,,,,,,,,,,,,,,,,,,,,,,,,,,,,,,,,,,,,,,,,,,,,,,,,,,,,,,,,,,,,,,,,,,,,,,,,,,,,,,,,,,,,,,,,,,,,,,,,,
fingersSpread,3,7,170,186,210,219,269,294,358,352,359,341,358,327,350,381,392,416,430,468,490,505,513,509,515,500,593,638,624,576,603,596,522,519,533,494,429,429,533,574,571,610,659,620,665,722,703,685,687,627,598,567,547,515,496,463,429,403,413,547,563,618,660,643,509,460,353,251,214,211,181,181,151,145,137,131,119,119,136,139,152,158,184,176,184,185,190,161,156,147,136,129,123,150,149,146,142,132,,,,,,,,,,,,,,,,,,,,,,,,,,,,,,,,,,,,,,,,,,,,,,,,,,,,,,,,,,,,,,,,,,,,,,,,,,,,,,,,,,,,,,,,,,,,,,,,,,,,,,,,,,,,,,,,,,,,,,,,,,,,,,,,,,,,,,,,,,,,,,,,,,
fingersSpread,3,8,63,50,51,53,54,49,79,84,87,107,108,91,86,84,55,53,51,56,53,54,56,55,50,49,49,35,74,80,84,103,103,84,78,74,49,60,73,100,123,134,136,148,189,211,259,267,285,268,287,257,271,272,282,260,261,271,274,274,320,376,408,426,463,442,447,443,432,432,477,520,502,510,497,524,509,561,554,590,559,551,521,582,576,569,523,487,391,304,237,194,173,155,126,106,90,84,80,80,82,88,86,87,95,86,79,85,82,69,72,76,78,83,97,92,93,103,104,92,93,102,,,,,,,,,,,,,,,,,,,,,,,,,,,,,,,,,,,,,,,,,,,,,,,,,,,,,,,,,,,,,,,,,,,,,,,,,,,,,,,,,,,,,,,,,,,,,,,,,,,,,,,,,,,,,,,,,,,,,,,,,,
fingersSpread,3,9,31,32,31,33,52,79,81,82,82,72,38,30,32,29,30,35,34,30,30,42,42,43,45,174,188,188,190,193,98,58,55,48,35,29,30,29,30,29,28,26,32,31,31,32,31,28,32,37,37,44,45,45,43,43,53,54,54,54,54,42,47,54,57,61,65,64,77,85,100,151,157,159,163,164,131,152,155,163,188,213,219,228,226,268,264,261,278,293,337,356,366,357,351,285,330,387,454,486,486,456,421,378,382,464,475,483,461,460,457,464,472,470,462,490,469,438,446,434,322,335,364,367,361,352,309,252,222,208,156,159,156,159,121,114,104,94,61,46,47,42,42,38,37,35,31,29,28,28,26,25,25,23,23,26,27,27,28,27,25,23,33,32,32,,,,,,,,,,,,,,,,,,,,,,,,,,,,,,,,,,,,,,,,,,,,,,,,,,,,,,,,,,,,,,,,,,,,,,,,,,,,,,,
waveOut,3,0,26,25,25,25,23,26,28,28,30,31,29,27,26,26,24,24,23,24,26,26,25,31,31,48,89,106,157,165,186,246,328,337,382,452,452,26,25,491,491,542,545,541,533,517,508,513,548,540,568,554,574,597,601,579,564,569,480,442,439,471,434,431,464,511,494,521,550,557,537,633,659,648,660,658,583,595,623,604,615,716,692,647,680,649,523,491,506,521,565,548,546,527,503,433,430,397,404,301,292,254,231,191,166,167,172,162,163,163,156,144,143,129,119,102,89,90,78,82,84,84,73,77,72,70,68,62,62,58,56,,,,,,,,,,,,,,,,,,,,,,,,,,,,,,,,,,,,,,,,,,,,,,,,,,,,,,,,,,,,,,,,,,,,,,,,,,,,,,,,,,,,,,,,,,,,,,,,,,,,,,,,,,,,,,,,,
waveOut,3,1,54,58,54,59,65,66,62,62,59,57,56,56,60,58,57,68,83,81,83,92,89,100,108,124,130,135,131,146,165,189,208,208,220,211,253,253,275,322,331,327,355,385,383,413,403,389,349,373,342,350,426,494,461,488,479,462,419,412,420,470,464,492,541,511,476,435,397,344,380,387,383,366,383,361,349,377,451,467,478,500,553,520,555,545,558,501,529,466,453,419,415,431,412,406,373,346,224,196,189,187,184,151,144,142,133,110,107,109,100,92,93,106,93,82,81,79,58,56,57,57,61,58,66,56,64,59,64,131,154,151,151,152,96,67,66,72,,,,,,,,,,,,,,,,,,,,,,,,,,,,,,,,,,,,,,,,,,,,,,,,,,,,,,,,,,,,,,,,,,,,,,,,,,,,,,,,,,,,,,,,,,,,,,,,,,,,,,,,,,
waveOut,3,2,28,29,29,29,30,31,32,33,34,31,36,37,37,37,39,37,37,53,55,59,56,57,43,42,37,43,46,54,55,58,82,105,125,161,166,187,200,228,241,273,269,309,309,283,270,289,336,325,354,367,393,351,367,387,405,430,479,485,470,481,465,409,434,502,499,476,511,517,468,468,492,454,446,460,432,430,466,478,451,478,476,455,441,491,502,496,500,483,419,383,352,348,343,330,375,430,390,382,392,332,252,262,238,228,202,182,171,161,138,134,127,95,84,77,76,66,68,61,63,58,59,54,62,61,63,63,67,67,76,74,67,69,62,53,48,51,49,50,43,52,54,50,51,52,44,43,,,,,,,,,,,,,,,,,,,,,,,,,,,,,,,,,,,,,,,,,,,,,,,,,,,,,,,,,,,,,,,,,,,,,,,,,,,,,,,,,,,,,,,,,,,,,,,,
waveOut,3,3,37,42,43,47,53,51,50,47,57,52,53,53,73,74,77,76,83,75,66,66,71,73,75,76,105,133,136,143,161,155,191,249,323,418,448,595,640,723,749,791,748,697,626,563,513,446,468,433,440,414,442,441,474,477,548,584,619,639,644,663,630,596,571,552,465,431,463,534,531,541,533,503,415,461,484,538,617,625,598,630,588,567,551,581,510,562,508,487,478,470,473,545,598,583,608,564,513,493,466,430,474,466,426,432,432,387,345,337,321,342,318,298,280,272,255,265,272,268,288,266,219,202,185,214,256,277,281,283,231,164,114,106,95,91,70,69,63,62,57,75,74,74,68,79,70,79,76,75,78,73,62,61,66,57,55,55,,,,,,,,,,,,,,,,,,,,,,,,,,,,,,,,,,,,,,,,,,,,,,,,,,,,,,,,,,,,,,,,,,,,,,,,,,,,,,,,,,,,,,
waveOut,3,4,30,33,36,35,34,37,36,36,60,72,87,113,126,121,118,121,103,96,94,102,99,99,108,161,167,176,190,193,184,194,221,218,240,280,293,318,366,387,364,416,397,383,392,416,437,461,461,483,506,491,481,469,444,462,449,532,669,679,694,753,750,661,638,657,630,593,571,575,480,458,463,519,553,609,614,569,580,546,506,489,551,516,540,524,485,488,461,449,482,484,453,445,435,380,376,394,374,340,349,327,248,251,250,248,227,207,184,206,177,178,156,154,127,136,129,126,127,111,72,68,74,64,64,78,77,77,78,80,74,72,62,67,,,,,,,,,,,,,,,,,,,,,,,,,,,,,,,,,,,,,,,,,,,,,,,,,,,,,,,,,,,,,,,,,,,,,,,,,,,,,,,,,,,,,,,,,,,,,,,,,,,,,,,,,,,,,,
waveOut,3,5,69,72,71,58,65,67,58,59,57,46,43,39,52,52,53,53,64,55,55,55,69,54,70,73,80,70,73,63,71,73,91,101,128,143,171,175,196,200,205,198,203,200,191,185,179,201,241,249,258,342,450,468,534,572,541,495,520,535,551,567,587,585,567,538,570,554,537,559,596,634,636,667,632,624,557,527,475,468,420,427,420,432,424,439,445,455,438,457,483,466,468,494,476,510,571,572,568,551,469,420,432,412,434,468,427,397,375,380,343,320,299,295,234,198,182,181,141,136,125,122,100,89,89,81,76,71,73,74,78,75,76,71,60,55,61,66,61,58,58,55,56,59,60,62,64,65,61,,,,,,,,,,,,,,,,,,,,,,,,,,,,,,,,,,,,,,,,,,,,,,,,,,,,,,,,,,,,,,,,,,,,,,,,,,,,,,,,,,,,,,,,,,,,,,,
waveOut,3,6,476,448,466,496,440,451,477,435,420,414,448,455,478,471,468,410,464,477,510,531,565,491,458,433,414,365,444,502,533,561,611,590,583,599,625,601,593,627,612,584,632,626,544,506,500,433,440,474,507,520,521,505,481,468,468,443,498,509,536,496,509,445,431,363,390,352,379,388,385,360,353,294,312,295,343,363,517,503,517,491,483,327,292,255,186,161,129,134,122,120,117,106,81,74,122,121,141,140,141,103,99,84,78,77,70,67,54,52,53,47,48,50,49,45,47,47,40,40,40,,,,,,,,,,,,,,,,,,,,,,,,,,,,,,,,,,,,,,,,,,,,,,,,,,,,,,,,,,,,,,,,,,,,,,,,,,,,,,,,,,,,,,,,,,,,,,,,,,,,,,,,,,,,,,,,,,,,,,,,,,,
waveOut,3,7,36,31,36,36,34,36,35,32,34,31,35,43,45,48,49,48,41,41,41,40,39,45,46,50,60,64,67,69,78,91,104,105,119,130,150,166,188,188,194,204,207,187,202,229,231,260,268,306,304,372,407,483,476,472,439,471,422,415,448,471,426,419,440,406,423,428,441,479,500,477,456,469,426,427,399,392,368,356,355,366,368,380,385,367,408,401,372,361,353,321,339,340,317,360,344,416,445,545,529,524,475,518,443,467,505,516,455,525,514,492,478,500,429,465,438,425,416,410,343,423,420,410,385,403,387,451,452,476,455,433,410,434,487,523,534,552,544,520,510,501,450,431,410,400,352,353,352,316,272,282,302,273,268,283,309,284,285,311,298,257,235,241,181,174,171,150,123,117,102,83,73,58,50,55,52,51,80,97,103,103,103,109,95,86,87,87,52,53,51,49,47,44,45,40,40,,,,,,,,,,,,,,,,,,,,,,,,,,,,,,,,,,,,,,,,,,,,,,,
waveOut,3,8,29,27,28,27,28,32,33,43,45,45,47,59,55,55,54,51,50,50,52,52,53,44,43,44,48,53,70,69,65,64,71,72,78,81,149,238,266,308,324,318,291,315,292,305,306,305,263,297,276,270,244,262,240,267,280,279,275,263,247,261,315,304,352,376,419,397,429,442,491,513,554,567,556,527,485,463,471,449,435,445,436,398,418,427,415,423,431,444,421,420,432,405,366,376,340,280,295,298,300,325,330,329,327,289,271,254,243,325,350,344,341,346,248,240,252,274,278,277,284,293,268,276,271,269,255,271,245,247,237,224,197,189,172,152,141,151,160,162,135,129,112,96,92,85,68,56,45,42,61,66,77,75,73,56,49,32,31,31,28,32,,,,,,,,,,,,,,,,,,,,,,,,,,,,,,,,,,,,,,,,,,,,,,,,,,,,,,,,,,,,,,,,,,,,,,,,,,,,,,,,,,
waveOut,3,9,22,23,25,24,23,24,23,24,23,23,23,24,21,23,23,23,23,27,27,27,33,34,33,38,47,46,48,66,69,66,68,77,63,63,65,67,84,101,108,129,147,149,182,192,192,219,256,278,292,311,308,295,307,298,324,350,440,418,449,450,469,454,475,497,544,514,472,505,494,437,452,473,432,427,449,433,404,424,442,432,465,502,478,452,464,475,441,472,461,490,520,542,530,543,524,471,454,431,434,435,452,460,507,497,483,452,431,371,360,368,359,363,369,394,352,423,406,398,355,330,210,181,157,124,125,102,97,81,92,91,85,85,87,80,73,71,68,67,66,71,72,76,91,88,81,84,85,64,,,,,,,,,,,,,,,,,,,,,,,,,,,,,,,,,,,,,,,,,,,,,,,,,,,,,,,,,,,,,,,,,,,,,,,,,,,,,,,,,,,,,,,,,,,,,,
waveIn,3,0,94,82,71,69,63,43,41,66,69,70,70,72,56,56,59,65,61,57,56,57,47,68,106,140,205,237,334,367,428,632,654,625,669,664,538,509,526,497,472,488,593,612,600,648,597,549,703,729,698,845,834,706,699,787,778,815,943,1007,1063,1007,977,884,796,716,676,667,692,740,751,746,818,790,909,923,907,875,905,869,785,924,944,958,869,980,875,843,888,849,722,718,721,570,597,543,466,376,280,156,113,105,99,104,106,104,99,93,81,82,89,96,99,96,91,92,78,77,76,70,59,56,43,41,40,46,46,50,,,,,,,,,,,,,,,,,,,,,,,,,,,,,,,,,,,,,,,,,,,,,,,,,,,,,,,,,,,,,,,,,,,,,,,,,,,,,,,,,,,,,,,,,,,,,,,,,,,,,,,,,,,,,,,,,,,,
waveIn,3,1,37,36,38,36,38,39,41,40,44,46,47,54,57,56,56,63,72,80,96,110,125,137,143,142,142,137,144,172,225,256,260,269,268,238,209,221,225,247,280,294,290,285,259,243,254,255,281,308,346,355,350,381,388,360,354,402,485,579,633,649,625,552,445,408,411,474,529,705,740,730,782,790,715,713,771,733,770,752,723,676,722,645,589,598,737,796,809,917,933,895,880,955,937,925,954,903,880,816,855,776,753,827,875,914,961,1011,1083,1061,1103,1106,1035,922,889,719,678,676,522,495,471,330,283,213,161,134,83,74,66,55,52,51,52,55,55,58,58,65,60,56,64,64,53,54,54,41,36,59,58,58,66,67,48,47,55,45,59,60,61,,,,,,,,,,,,,,,,,,,,,,,,,,,,,,,,,,,,,,,,,,,,,,,,,,,,,,,,,,,,,,,,,,,,,,,,,,,,,,,,,,,,,
waveIn,3,2,26,29,31,33,34,36,34,33,36,37,36,37,39,37,39,46,65,82,87,106,119,142,160,175,188,186,189,209,208,201,220,248,230,235,265,264,236,257,388,406,423,428,448,336,313,307,399,409,465,451,494,471,468,440,464,439,393,405,409,423,466,468,447,466,494,467,505,509,497,478,436,434,449,483,489,506,510,572,582,569,606,613,547,492,496,492,504,599,637,639,618,590,504,497,497,556,561,621,615,636,589,612,609,605,644,611,568,572,671,710,806,864,821,811,791,733,699,742,669,655,705,758,758,793,804,794,737,702,667,576,476,411,358,356,320,315,328,310,250,277,266,246,231,171,102,93,66,60,51,53,51,59,64,66,67,69,59,54,52,51,49,51,42,56,53,52,55,55,37,37,40,35,35,49,54,54,55,57,47,41,40,40,39,37,49,64,64,,,,,,,,,,,,,,,,,,,,,,,,,,,,,,,,,,,,,,,,,,,,,,,,,,,,,,,
waveIn,3,3,26,27,27,30,27,29,29,28,28,30,29,29,31,30,30,36,36,32,34,32,26,32,35,37,38,38,35,51,52,53,55,58,59,58,60,58,56,51,61,102,124,255,495,513,539,550,526,341,392,373,372,363,395,382,371,362,369,343,301,339,389,450,450,463,469,500,471,487,484,460,429,407,452,483,481,489,522,544,564,618,591,563,485,486,464,478,460,459,436,456,456,504,513,478,432,502,464,456,453,472,448,482,564,571,580,561,556,477,465,444,414,381,396,407,477,454,490,457,476,414,453,566,583,610,652,673,599,729,744,774,818,829,722,686,604,505,454,428,368,316,265,173,135,131,118,72,64,57,52,51,49,51,52,50,54,60,60,58,56,51,47,44,45,43,41,38,36,42,41,46,43,43,36,35,31,34,34,38,,,,,,,,,,,,,,,,,,,,,,,,,,,,,,,,,,,,,,,,,,,,,,,,,,,,,,,,,,,,,,,,
waveIn,3,5,24,26,25,24,26,27,30,30,32,30,28,26,29,28,29,28,28,25,25,25,26,26,28,30,30,31,34,45,106,145,150,159,182,199,192,361,414,421,455,490,405,372,473,546,527,609,637,604,643,698,669,706,713,698,701,722,730,796,737,767,818,822,799,898,964,929,934,944,864,742,745,735,758,828,869,901,1039,1045,1115,1105,1102,987,1040,1007,990,1046,1079,1025,949,1013,954,936,915,899,893,867,813,735,744,645,621,558,533,441,456,378,373,371,350,225,147,120,100,84,70,55,62,67,67,76,85,81,74,71,78,71,79,79,78,68,63,56,55,57,57,55,50,50,47,44,49,51,52,53,47,,,,,,,,,,,,,,,,,,,,,,,,,,,,,,,,,,,,,,,,,,,,,,,,,,,,,,,,,,,,,,,,,,,,,,,,,,,,,,,,,,,,,,,,,,,,,,,,,
waveIn,3,6,66,71,78,74,88,106,120,174,185,187,182,183,143,145,178,203,229,231,278,269,260,254,266,240,236,243,226,249,307,394,416,432,497,539,501,538,599,591,631,690,726,685,715,710,659,633,686,667,636,759,872,1089,1151,1346,1364,1370,1227,1230,1039,1018,1072,1043,1115,1131,1209,1165,1205,1048,1014,854,700,638,640,585,512,553,486,456,454,579,509,480,473,425,205,181,169,167,163,141,89,78,77,81,86,94,94,97,96,90,78,77,56,55,53,53,53,52,39,48,46,47,46,47,38,36,39,46,50,48,53,49,43,40,52,48,46,44,41,28,26,28,,,,,,,,,,,,,,,,,,,,,,,,,,,,,,,,,,,,,,,,,,,,,,,,,,,,,,,,,,,,,,,,,,,,,,,,,,,,,,,,,,,,,,,,,,,,,,,,,,,,,,,,,,,,,,
waveIn,3,7,31,30,28,29,29,32,31,32,31,34,42,43,45,51,129,162,219,232,297,358,524,529,576,559,576,479,556,554,653,614,612,594,607,522,530,559,551,675,773,775,792,845,738,719,803,880,990,1139,1318,1366,1389,1325,1306,1125,1134,1061,1019,976,1004,1020,1129,1271,1317,1344,1302,1238,1178,1143,1198,1264,1269,1228,1224,1150,1076,1146,1191,1164,1131,1099,1004,1036,1061,1117,1095,1085,960,842,747,757,681,669,686,593,524,505,404,347,343,296,279,262,239,226,181,111,137,148,150,152,144,115,99,87,80,83,71,95,94,95,93,99,75,81,72,68,60,68,55,55,51,49,,,,,,,,,,,,,,,,,,,,,,,,,,,,,,,,,,,,,,,,,,,,,,,,,,,,,,,,,,,,,,,,,,,,,,,,,,,,,,,,,,,,,,,,,,,,,,,,,,,,,,,,,,,,,,
waveIn,3,8,27,25,27,26,26,26,25,28,38,46,144,277,307,310,323,329,277,327,340,379,384,385,327,363,366,369,343,365,338,311,333,397,440,560,661,672,675,673,585,475,434,372,308,348,387,413,452,516,538,510,508,514,488,431,418,394,362,342,416,453,528,586,683,653,665,645,606,510,549,645,677,678,738,755,715,706,804,783,803,770,792,688,732,693,754,754,760,712,659,688,621,642,592,695,580,575,523,507,387,368,328,318,312,305,258,269,267,275,224,231,212,204,227,227,211,201,215,166,161,157,165,147,136,121,103,82,76,68,62,59,65,63,64,64,69,63,65,65,58,50,58,52,49,62,66,70,72,76,66,,,,,,,,,,,,,,,,,,,,,,,,,,,,,,,,,,,,,,,,,,,,,,,,,,,,,,,,,,,,,,,,,,,,,,,,,,,,,,,,,,,,,,,,,,,,,
waveIn,3,9,28,29,27,30,32,28,32,31,30,32,32,46,56,61,65,82,98,162,198,246,253,254,346,341,323,315,324,222,221,207,212,228,194,201,210,219,219,307,331,367,411,441,433,504,552,557,554,550,502,560,547,556,589,608,538,622,657,665,744,728,731,738,792,761,810,810,836,833,781,774,793,791,748,802,811,776,768,790,827,793,749,749,736,653,710,759,679,622,645,546,451,449,462,344,344,348,382,331,338,300,268,198,172,149,147,154,143,136,121,122,119,115,140,142,139,125,137,108,113,114,123,113,107,112,105,93,84,84,56,62,68,66,85,81,76,,,,,,,,,,,,,,,,,,,,,,,,,,,,,,,,,,,,,,,,,,,,,,,,,,,,,,,,,,,,,,,,,,,,,,,,,,,,,,,,,,,,,,,,,,,,,,,,,,,,,,,,,,,
doubleTap,3,0,33,33,31,35,34,35,39,38,37,39,39,35,36,31,35,39,42,44,45,45,45,53,56,61,66,88,190,212,214,216,225,155,192,201,203,237,264,231,236,277,254,237,236,223,169,137,111,91,85,72,68,62,67,68,74,71,69,62,63,60,61,65,57,53,52,51,47,42,49,46,49,52,53,49,54,56,56,57,56,50,44,45,44,43,41,46,41,43,42,42,35,34,28,30,44,45,48,47,50,46,44,,,,,,,,,,,,,,,,,,,,,,,,,,,,,,,,,,,,,,,,,,,,,,,,,,,,,,,,,,,,,,,,,,,,,,,,,,,,,,,,,,,,,,,,,,,,,,,,,,,,,,,,,,,,,,,,,,,,,,,,,,,,,,,,,,,,,,,,,,,,,
doubleTap,3,1,27,28,30,30,31,32,33,33,36,35,35,32,32,28,27,25,27,26,29,30,32,32,36,60,115,135,140,144,142,137,151,169,185,279,295,292,287,328,273,249,239,234,150,108,89,76,62,61,63,62,60,62,61,48,49,49,47,47,58,56,56,58,61,48,49,59,61,61,62,62,54,55,50,49,48,46,42,46,45,42,42,45,41,48,50,50,48,45,38,41,38,36,36,39,34,37,36,,,,,,,,,,,,,,,,,,,,,,,,,,,,,,,,,,,,,,,,,,,,,,,,,,,,,,,,,,,,,,,,,,,,,,,,,,,,,,,,,,,,,,,,,,,,,,,,,,,,,,,,,,,,,,,,,,,,,,,,,,,,,,,,,,,,,,,,,,,,,,,,,
doubleTap,3,2,33,34,35,36,36,40,40,39,36,37,32,35,38,38,39,39,33,29,29,34,34,36,36,54,63,69,76,81,77,73,97,99,100,102,100,93,169,194,197,211,213,279,300,302,295,313,230,223,232,238,205,181,122,87,63,59,58,57,53,54,55,56,58,59,50,54,58,56,54,54,51,47,42,45,57,56,54,57,65,58,62,64,64,53,51,51,45,48,49,54,50,49,45,45,36,35,39,44,48,49,51,48,47,41,52,64,86,88,87,93,85,84,81,84,94,98,93,127,210,282,288,290,320,288,218,213,208,136,103,81,69,62,58,58,68,65,65,63,62,61,64,64,63,64,56,55,54,55,53,49,50,54,56,55,56,53,50,46,43,43,46,53,54,54,56,56,49,44,60,58,56,56,58,45,44,,,,,,,,,,,,,,,,,,,,,,,,,,,,,,,,,,,,,,,,,,,,,,,,,,,,,,,,,,,,,,,,,,,
doubleTap,3,3,38,38,42,42,45,42,48,48,47,44,43,37,36,35,36,38,39,37,39,38,37,36,36,38,36,34,38,38,46,59,67,67,67,65,86,90,96,104,104,94,110,151,165,166,185,189,165,148,149,160,165,175,180,181,154,131,101,87,83,58,48,54,58,50,51,55,52,48,53,65,65,68,69,66,56,59,54,56,58,58,53,54,53,49,49,52,47,45,54,57,55,56,57,49,47,,,,,,,,,,,,,,,,,,,,,,,,,,,,,,,,,,,,,,,,,,,,,,,,,,,,,,,,,,,,,,,,,,,,,,,,,,,,,,,,,,,,,,,,,,,,,,,,,,,,,,,,,,,,,,,,,,,,,,,,,,,,,,,,,,,,,,,,,,,,,,,,,,,
doubleTap,3,4,36,39,41,42,43,46,44,47,46,49,60,96,126,147,150,175,192,212,206,218,200,348,388,391,388,429,318,255,258,254,174,151,119,93,82,73,57,57,54,56,55,62,63,62,60,65,58,53,61,63,59,59,62,57,53,50,55,55,54,58,57,49,43,49,45,,,,,,,,,,,,,,,,,,,,,,,,,,,,,,,,,,,,,,,,,,,,,,,,,,,,,,,,,,,,,,,,,,,,,,,,,,,,,,,,,,,,,,,,,,,,,,,,,,,,,,,,,,,,,,,,,,,,,,,,,,,,,,,,,,,,,,,,,,,,,,,,,,,,,,,,,,,,,,,,,,,,,,,,,,,,,,,,,
doubleTap,3,5,38,39,39,38,35,39,41,45,47,49,90,207,229,233,237,234,192,180,193,199,279,392,431,427,430,407,290,226,222,211,155,117,99,93,82,77,72,71,71,69,55,52,59,55,54,72,76,69,71,69,58,53,56,57,58,50,51,49,44,43,55,55,56,56,54,42,43,53,52,54,53,55,44,55,60,,,,,,,,,,,,,,,,,,,,,,,,,,,,,,,,,,,,,,,,,,,,,,,,,,,,,,,,,,,,,,,,,,,,,,,,,,,,,,,,,,,,,,,,,,,,,,,,,,,,,,,,,,,,,,,,,,,,,,,,,,,,,,,,,,,,,,,,,,,,,,,,,,,,,,,,,,,,,,,,,,,,,,,
doubleTap,3,6,34,38,41,41,42,38,40,40,43,46,47,47,43,42,39,44,59,61,63,115,170,201,229,235,245,280,266,247,259,291,333,341,345,346,354,270,259,255,239,146,120,93,74,70,58,56,58,58,62,61,58,54,54,49,47,50,54,54,49,58,64,59,58,60,58,52,55,55,60,55,53,57,66,156,218,230,232,237,205,152,135,137,138,160,174,180,177,186,158,132,123,122,94,76,69,66,67,65,60,58,60,54,59,56,60,60,61,55,65,64,61,59,61,67,65,70,71,68,61,62,77,80,80,76,73,55,47,53,50,54,52,52,60,78,208,218,226,225,221,177,180,181,183,182,122,189,191,194,197,210,143,137,143,137,120,110,97,76,75,61,72,68,74,73,79,74,81,77,79,70,65,59,55,53,65,66,64,65,69,57,56,68,68,74,76,74,79,77,69,69,74,65,65,63,59,61,55,59,75,75,75,78,90,79,90,90,88,96,180,199,203,206,208,173,178,189,200,189,165,158,193,184,197,216,230,191,198,191,179,138,132,113,112,87,77,78,74,54,58,68,61,
doubleTap,3,7,55,53,54,51,50,49,54,60,62,63,63,59,58,56,51,50,50,48,45,53,59,83,129,136,146,175,202,184,186,181,233,253,254,251,258,208,156,150,149,134,98,74,67,58,50,58,57,59,68,65,65,63,59,49,55,48,68,68,71,67,70,51,51,49,51,52,56,52,57,53,58,53,54,50,51,41,45,46,50,49,,,,,,,,,,,,,,,,,,,,,,,,,,,,,,,,,,,,,,,,,,,,,,,,,,,,,,,,,,,,,,,,,,,,,,,,,,,,,,,,,,,,,,,,,,,,,,,,,,,,,,,,,,,,,,,,,,,,,,,,,,,,,,,,,,,,,,,,,,,,,,,,,,,,,,,,,,,,,,,,,,
doubleTap,3,8,50,54,47,43,49,47,48,46,47,41,44,44,53,52,53,66,69,68,70,86,103,110,123,147,181,250,284,287,283,264,212,160,147,138,134,115,124,119,112,106,81,61,56,50,58,57,53,55,61,46,43,45,42,33,35,46,44,45,46,55,52,52,61,61,52,48,55,48,56,58,58,56,56,59,64,68,68,79,82,90,116,153,162,162,168,159,,,,,,,,,,,,,,,,,,,,,,,,,,,,,,,,,,,,,,,,,,,,,,,,,,,,,,,,,,,,,,,,,,,,,,,,,,,,,,,,,,,,,,,,,,,,,,,,,,,,,,,,,,,,,,,,,,,,,,,,,,,,,,,,,,,,,,,,,,,,,,,,,,,,,,,,,,,,
doubleTap,3,9,52,60,61,61,57,55,51,50,50,53,55,53,55,55,57,52,51,49,46,61,84,93,97,115,110,102,123,197,219,224,226,271,252,230,238,242,193,169,211,212,211,248,241,205,186,178,100,102,93,93,88,86,77,77,83,83,66,69,67,57,57,56,51,54,51,53,54,47,39,52,52,53,51,59,52,56,53,56,48,48,46,47,43,41,38,34,37,38,,,,,,,,,,,,,,,,,,,,,,,,,,,,,,,,,,,,,,,,,,,,,,,,,,,,,,,,,,,,,,,,,,,,,,,,,,,,,,,,,,,,,,,,,,,,,,,,,,,,,,,,,,,,,,,,,,,,,,,,,,,,,,,,,,,,,,,,,,,,,,,,,,,,,,,,,,
fist,4,0,19,20,19,20,22,20,20,20,22,20,22,22,24,22,24,23,24,23,23,25,25,26,25,27,24,23,21,22,20,20,22,22,21,21,21,21,33,34,71,92,116,132,162,184,201,208,248,247,267,297,341,345,410,456,531,541,615,693,708,778,757,752,777,804,814,936,948,1001,988,1044,1029,1094,1103,1227,1223,1192,1199,1207,1203,1160,1316,1341,1347,1283,1306,1227,1221,1145,1140,1063,975,849,798,714,659,579,493,394,306,238,205,184,179,190,191,146,141,141,85,78,66,62,58,58,61,59,60,58,56,48,43,42,39,38,38,39,38,39,40,39,40,40,119,166,195,,,,,,,,,,,,,,,,,,,,,,,,,,,,,,,,,,,,,,,,,,,,,,,,,,,,,,,,,,,,,,,,,,,,,,,,,,,,,,,,,,,,,,,,,,,,,,,,,,,,,,,,,,,
fist,4,1,226,230,288,354,534,543,548,527,507,358,320,370,441,504,496,496,500,471,467,593,604,655,715,812,754,784,785,797,776,810,952,1073,1210,1196,1232,1247,1240,1174,1209,1296,1263,1259,1262,1317,1225,1184,1133,1139,1019,1105,1174,1239,1197,1250,1174,1183,1171,1198,1179,1154,1021,855,726,559,460,402,385,295,290,238,190,178,173,160,158,153,178,162,177,175,192,159,160,150,161,137,126,117,161,155,164,,,,,,,,,,,,,,,,,,,,,,,,,,,,,,,,,,,,,,,,,,,,,,,,,,,,,,,,,,,,,,,,,,,,,,,,,,,,,,,,,,,,,,,,,,,,,,,,,,,,,,,,,,,,,,,,,,,,,,,,,,,,,,,,,,,,,,,,,,,,,,,,,,,,,,,
fist,4,2,15,17,18,17,18,21,21,20,22,22,21,20,20,20,20,20,20,20,20,21,21,22,21,20,21,20,18,21,23,23,23,23,22,19,19,20,21,21,22,21,21,21,19,23,22,20,20,19,15,16,17,18,21,21,23,21,21,20,22,19,20,22,23,22,23,23,21,21,21,19,19,21,21,22,25,28,36,67,140,171,229,308,359,445,558,676,777,894,1001,1020,1037,1013,1110,1080,1125,1150,1198,1164,1182,1246,1294,1360,1307,1420,1357,1338,1335,1339,1259,1288,1217,1202,1276,1171,1105,1070,1014,1017,1126,1124,1205,1147,999,847,751,567,475,417,377,404,405,392,345,314,267,228,161,109,87,67,56,45,39,36,34,29,23,20,21,20,20,21,21,19,21,20,22,22,22,,,,,,,,,,,,,,,,,,,,,,,,,,,,,,,,,,,,,,,,,,,,,,,,,,,,,,,,,,,,,,,,,,,,,,,,,,,,,,,,,,,
fist,4,3,20,19,21,21,21,21,22,21,21,20,21,20,20,20,22,21,21,20,20,20,21,22,24,24,25,24,23,22,22,32,122,145,212,241,292,433,543,592,644,719,703,770,830,915,911,994,976,983,1018,1054,984,950,897,825,951,981,1053,1116,1205,1130,1226,1297,1313,1227,1236,1274,1214,1320,1381,1349,1303,1253,1115,1197,1239,1136,1200,1202,1182,1083,1178,1178,1186,1183,1298,1248,1215,1200,1156,1032,967,891,790,532,473,398,298,272,255,228,196,164,122,106,77,70,57,49,44,39,31,28,30,28,28,26,24,17,21,20,19,19,20,18,19,,,,,,,,,,,,,,,,,,,,,,,,,,,,,,,,,,,,,,,,,,,,,,,,,,,,,,,,,,,,,,,,,,,,,,,,,,,,,,,,,,,,,,,,,,,,,,,,,,,,,,,,,,,,,,,,,,,,,
fist,4,4,19,19,20,20,20,17,23,47,72,74,78,109,119,120,121,125,100,114,100,105,127,178,205,242,325,369,424,451,543,598,660,705,825,893,893,105,127,933,968,1065,1079,1170,1206,1255,1229,1259,1138,1079,1058,1064,988,1065,1120,1065,1062,1105,1127,1164,1146,1227,1211,1188,1171,1230,1115,1073,1051,1018,972,1083,1231,1205,1236,1293,1272,1170,1203,1212,1210,1201,1267,1206,1214,1151,1080,940,976,851,795,719,674,544,423,372,281,188,158,143,122,160,189,185,177,175,136,82,68,67,65,50,42,39,38,29,30,31,32,27,26,23,24,24,26,31,32,32,,,,,,,,,,,,,,,,,,,,,,,,,,,,,,,,,,,,,,,,,,,,,,,,,,,,,,,,,,,,,,,,,,,,,,,,,,,,,,,,,,,,,,,,,,,,,,,,,,,,,,,,,,,,,,,,,,,,
fist,4,5,19,20,20,19,20,24,24,31,38,41,73,80,84,85,88,67,63,56,76,179,240,289,399,479,633,689,747,743,881,860,892,977,1040,997,1097,1122,1170,1176,1241,1300,1395,1345,1323,1262,1148,1028,1096,1110,1208,1226,1304,1217,1239,1161,1142,1123,1249,1256,1257,1297,1298,1171,1227,1222,1146,1142,1247,1193,1254,1279,1205,1179,1172,1055,981,916,725,591,492,411,367,377,370,351,365,358,301,204,215,166,161,202,186,184,189,189,144,138,117,107,103,93,76,51,49,47,47,44,,,,,,,,,,,,,,,,,,,,,,,,,,,,,,,,,,,,,,,,,,,,,,,,,,,,,,,,,,,,,,,,,,,,,,,,,,,,,,,,,,,,,,,,,,,,,,,,,,,,,,,,,,,,,,,,,,,,,,,,,,,,,,,,,,,,,,
fist,4,6,20,19,31,42,52,53,55,54,115,162,167,169,184,298,317,373,442,464,555,622,656,685,745,694,694,757,810,982,1097,1148,1120,1104,1017,957,939,931,959,890,972,1088,1151,1209,1275,1288,1182,1215,1156,1155,1023,1066,1060,1214,1203,1294,1364,1350,1263,1232,1244,1109,1116,1141,1093,997,955,851,631,634,542,513,441,400,318,235,229,178,140,123,111,76,60,50,42,33,32,33,30,30,28,28,28,24,23,25,25,25,27,31,32,34,33,32,35,33,,,,,,,,,,,,,,,,,,,,,,,,,,,,,,,,,,,,,,,,,,,,,,,,,,,,,,,,,,,,,,,,,,,,,,,,,,,,,,,,,,,,,,,,,,,,,,,,,,,,,,,,,,,,,,,,,,,,,,,,,,,,,,,,,,,,,,,,,,
fist,4,7,20,21,21,20,21,20,19,19,20,17,18,19,69,79,82,93,109,128,147,185,250,282,272,296,304,334,366,399,444,540,648,769,829,844,988,1059,1094,1077,1146,1106,1124,1096,1165,1241,1259,1253,1286,1388,1427,1448,1429,1393,1300,1197,1155,1142,1231,1229,1229,1308,1301,1288,1317,1272,1182,1123,948,793,706,488,396,389,309,282,309,268,234,235,221,147,131,122,64,54,43,37,35,37,36,36,36,33,27,27,24,25,25,26,,,,,,,,,,,,,,,,,,,,,,,,,,,,,,,,,,,,,,,,,,,,,,,,,,,,,,,,,,,,,,,,,,,,,,,,,,,,,,,,,,,,,,,,,,,,,,,,,,,,,,,,,,,,,,,,,,,,,,,,,,,,,,,,,,,,,,,,,,,,,,,,
fist,4,8,19,22,22,23,24,24,22,24,23,22,22,21,19,20,20,19,19,21,18,20,21,20,20,20,20,20,21,21,23,25,40,131,182,243,434,627,679,772,796,789,739,770,690,748,764,761,894,1006,1057,1011,1043,890,861,842,895,889,1025,1075,1114,1190,1311,1297,1314,1348,1307,1179,1231,1209,1192,1266,1307,1268,1333,1269,1316,1326,1254,1089,1075,823,643,578,545,393,393,363,324,287,267,217,199,175,141,119,94,67,61,55,50,49,50,33,31,29,28,24,29,31,33,32,,,,,,,,,,,,,,,,,,,,,,,,,,,,,,,,,,,,,,,,,,,,,,,,,,,,,,,,,,,,,,,,,,,,,,,,,,,,,,,,,,,,,,,,,,,,,,,,,,,,,,,,,,,,,,,,,,,,,,,,,,,,,,,,,,,,
fist,4,9,18,19,21,21,19,23,23,23,21,24,19,20,18,28,61,79,83,93,98,183,234,319,322,340,356,463,433,467,551,571,486,542,637,673,727,839,819,749,738,700,598,639,760,790,856,931,987,961,1052,1067,1280,1251,1321,1272,1290,1188,1235,1238,1234,1231,1134,1225,1201,1189,1199,1212,1088,1110,1125,1045,986,909,718,542,437,264,223,162,170,144,139,128,121,101,90,75,58,46,26,27,24,22,24,26,22,22,24,22,19,20,20,20,22,21,20,20,18,16,,,,,,,,,,,,,,,,,,,,,,,,,,,,,,,,,,,,,,,,,,,,,,,,,,,,,,,,,,,,,,,,,,,,,,,,,,,,,,,,,,,,,,,,,,,,,,,,,,,,,,,,,,,,,,,,,,,,,,,,,,,,,,,,,,,,,,
fingersSpread,4,0,17,17,18,18,17,19,19,19,22,21,21,21,30,41,47,52,54,56,61,81,86,89,101,137,139,149,177,175,152,168,163,150,157,189,214,225,240,284,318,347,390,392,378,344,290,256,278,261,316,347,344,320,318,279,276,256,251,264,242,221,214,222,221,229,209,202,177,138,95,64,56,170,193,196,210,215,147,131,135,117,108,98,73,49,39,30,34,33,34,33,32,23,23,19,,,,,,,,,,,,,,,,,,,,,,,,,,,,,,,,,,,,,,,,,,,,,,,,,,,,,,,,,,,,,,,,,,,,,,,,,,,,,,,,,,,,,,,,,,,,,,,,,,,,,,,,,,,,,,,,,,,,,,,,,,,,,,,,,,,,,,,,,,,,,,,,,,,,
fingersSpread,4,1,36,60,64,83,85,94,111,121,119,135,139,192,193,212,214,219,217,221,208,246,252,265,266,295,301,314,290,293,294,338,351,364,428,451,416,418,432,396,385,425,459,438,415,390,334,272,275,283,333,350,345,344,340,301,404,401,401,411,405,286,299,286,260,280,319,344,355,359,343,297,260,242,250,232,209,171,143,95,69,57,48,61,124,135,164,165,162,126,115,67,65,56,39,31,24,23,23,25,25,24,27,27,,,,,,,,,,,,,,,,,,,,,,,,,,,,,,,,,,,,,,,,,,,,,,,,,,,,,,,,,,,,,,,,,,,,,,,,,,,,,,,,,,,,,,,,,,,,,,,,,,,,,,,,,,,,,,,,,,,,,,,,,,,,,,,,,,,,,,,,,,,,
fingersSpread,4,2,19,17,18,17,19,19,22,22,21,19,19,20,19,20,19,20,19,23,23,24,24,23,19,22,23,22,22,21,22,25,60,71,156,181,188,208,209,160,156,229,235,248,260,262,239,231,217,247,248,233,246,286,300,309,383,414,403,427,433,408,390,410,406,400,418,441,455,472,468,463,441,450,427,461,420,437,460,433,398,416,395,299,314,325,289,291,310,289,293,313,324,332,320,307,286,250,208,206,175,154,121,110,81,71,60,47,37,35,34,29,25,24,24,22,22,20,21,21,21,25,27,29,30,33,31,31,31,,,,,,,,,,,,,,,,,,,,,,,,,,,,,,,,,,,,,,,,,,,,,,,,,,,,,,,,,,,,,,,,,,,,,,,,,,,,,,,,,,,,,,,,,,,,,,,,,,,,,,,,,,,,,,,,,,,
fingersSpread,4,3,19,21,22,20,22,22,21,21,20,19,19,19,18,19,21,21,22,22,22,21,24,23,24,25,35,38,39,46,48,46,110,146,164,168,184,207,228,225,234,243,246,238,248,262,272,262,262,272,281,272,353,360,406,436,507,471,482,478,475,511,575,626,621,627,572,536,526,545,532,500,483,485,495,514,518,558,566,542,514,507,447,371,366,347,341,302,252,155,126,101,83,64,52,48,38,51,50,49,49,47,30,30,31,28,27,48,61,63,63,65,51,34,28,25,20,19,20,20,21,20,23,25,,,,,,,,,,,,,,,,,,,,,,,,,,,,,,,,,,,,,,,,,,,,,,,,,,,,,,,,,,,,,,,,,,,,,,,,,,,,,,,,,,,,,,,,,,,,,,,,,,,,,,,,,,,,,,,,,,,,,,,,
fingersSpread,4,4,20,21,21,20,21,21,21,20,20,19,17,21,20,21,21,21,19,20,20,19,21,22,21,24,26,53,61,67,71,79,77,77,122,154,164,189,215,201,230,259,251,265,311,290,266,296,311,295,311,387,373,360,398,394,375,416,444,450,474,483,451,523,504,580,559,614,572,565,480,482,450,427,444,438,474,459,474,450,450,403,377,321,307,292,268,270,243,221,175,148,72,50,77,110,115,124,130,122,108,108,99,91,80,49,35,27,24,22,19,19,,,,,,,,,,,,,,,,,,,,,,,,,,,,,,,,,,,,,,,,,,,,,,,,,,,,,,,,,,,,,,,,,,,,,,,,,,,,,,,,,,,,,,,,,,,,,,,,,,,,,,,,,,,,,,,,,,,,,,,,,,,,,,,,,,,,
fingersSpread,4,5,19,20,22,22,23,22,21,21,23,21,22,22,20,18,18,17,18,19,18,19,22,21,20,22,23,24,24,23,21,23,18,19,22,29,55,66,91,100,142,149,156,158,159,147,153,180,194,211,219,222,212,267,259,258,255,332,331,351,386,504,527,510,542,547,523,486,579,591,589,585,627,580,594,585,629,589,569,507,503,450,488,482,474,455,388,283,238,235,231,161,142,110,73,46,39,33,47,58,75,91,121,132,127,118,107,72,46,48,48,46,46,34,32,29,29,25,26,21,24,23,,,,,,,,,,,,,,,,,,,,,,,,,,,,,,,,,,,,,,,,,,,,,,,,,,,,,,,,,,,,,,,,,,,,,,,,,,,,,,,,,,,,,,,,,,,,,,,,,,,,,,,,,,,,,,,,,,,,,,,,,,
fingersSpread,4,6,18,18,19,19,20,18,21,19,19,21,22,20,21,22,20,20,22,27,47,48,50,50,48,31,91,103,108,110,115,90,117,131,137,161,174,203,234,245,241,233,245,222,235,243,258,246,294,393,414,459,508,506,462,461,476,527,517,490,536,536,454,453,490,533,491,474,485,494,441,475,472,514,478,451,485,483,436,424,386,266,239,178,158,115,91,83,85,155,167,172,203,195,157,144,139,90,91,63,54,51,44,39,29,27,26,21,20,21,18,18,17,17,17,17,18,18,18,20,22,20,21,21,20,19,20,23,24,22,20,21,18,17,22,22,22,,,,,,,,,,,,,,,,,,,,,,,,,,,,,,,,,,,,,,,,,,,,,,,,,,,,,,,,,,,,,,,,,,,,,,,,,,,,,,,,,,,,,,,,,,,,,,,,,,,,,,,,,,,
fingersSpread,4,7,20,22,22,22,21,23,23,22,25,25,24,25,23,22,23,21,23,23,21,20,20,18,17,19,23,33,38,60,81,112,122,142,167,166,155,171,179,206,235,253,304,367,361,392,403,408,401,405,379,407,489,506,511,585,615,574,570,624,613,627,618,602,559,504,473,475,454,439,477,426,394,392,364,269,237,167,113,99,92,74,107,112,116,114,116,87,74,62,56,44,32,28,29,24,22,26,25,23,22,25,24,26,26,27,26,23,,,,,,,,,,,,,,,,,,,,,,,,,,,,,,,,,,,,,,,,,,,,,,,,,,,,,,,,,,,,,,,,,,,,,,,,,,,,,,,,,,,,,,,,,,,,,,,,,,,,,,,,,,,,,,,,,,,,,,,,,,,,,,,,,,,,,,,,
fingersSpread,4,8,24,26,27,22,22,23,20,17,20,22,22,25,25,26,24,25,21,25,22,22,22,23,20,22,24,21,22,22,22,20,22,22,23,22,21,21,22,20,22,23,22,32,34,34,35,38,30,37,43,44,44,45,40,44,76,80,106,118,152,207,232,230,232,242,257,245,270,299,343,338,406,471,493,525,532,489,443,452,395,394,422,401,391,386,397,404,431,434,421,389,361,319,287,279,292,264,252,196,179,93,68,146,176,202,204,204,160,122,64,55,53,42,40,37,32,30,26,24,23,22,18,19,20,22,21,21,21,24,24,24,26,27,26,25,25,25,24,22,,,,,,,,,,,,,,,,,,,,,,,,,,,,,,,,,,,,,,,,,,,,,,,,,,,,,,,,,,,,,,,,,,,,,,,,,,,,,,,,,,,,,,,,,,,,,,,,,,,,,,,,
fingersSpread,4,9,24,25,25,24,22,21,21,19,20,21,21,23,22,21,20,20,17,18,19,18,19,20,20,19,21,20,22,24,23,45,47,49,52,73,85,152,164,215,232,236,212,228,266,299,331,344,359,410,405,457,480,571,518,546,541,535,450,495,486,461,504,513,516,482,468,505,491,431,439,457,413,419,425,420,393,321,274,304,310,298,286,279,217,173,132,92,83,83,84,129,146,154,168,165,128,108,96,60,54,50,35,30,27,23,22,20,19,17,19,18,22,23,22,20,22,,,,,,,,,,,,,,,,,,,,,,,,,,,,,,,,,,,,,,,,,,,,,,,,,,,,,,,,,,,,,,,,,,,,,,,,,,,,,,,,,,,,,,,,,,,,,,,,,,,,,,,,,,,,,,,,,,,,,,,,,,,,,,,
waveOut,4,0,17,19,24,26,29,31,30,32,34,32,32,33,29,27,33,34,40,42,53,61,69,70,78,73,74,69,70,101,119,131,131,34,40,161,176,174,203,218,213,225,219,213,230,237,235,247,233,217,216,224,224,225,209,205,188,176,166,164,149,149,137,142,136,129,100,97,76,71,56,51,48,40,35,33,33,29,29,136,129,100,25,23,22,20,20,19,20,25,27,25,28,25,25,23,22,21,23,20,,,,,,,,,,,,,,,,,,,,,,,,,,,,,,,,,,,,,,,,,,,,,,,,,,,,,,,,,,,,,,,,,,,,,,,,,,,,,,,,,,,,,,,,,,,,,,,,,,,,,,,,,,,,,,,,,,,,,,,,,,,,,,,,,,,,,,,,,,,,,,,,
waveOut,4,1,18,18,19,19,19,19,21,20,20,23,22,21,21,25,22,22,22,24,21,22,24,25,28,29,29,35,49,51,52,55,74,72,95,110,125,124,159,185,187,200,213,212,186,207,200,203,200,210,210,212,234,230,244,235,242,211,235,223,231,218,213,190,169,143,132,129,107,106,93,83,70,51,45,39,39,35,26,27,26,26,28,27,33,31,35,33,35,30,33,29,29,29,28,26,24,,,,,,,,,,,,,,,,,,,,,,,,,,,,,,,,,,,,,,,,,,,,,,,,,,,,,,,,,,,,,,,,,,,,,,,,,,,,,,,,,,,,,,,,,,,,,,,,,,,,,,,,,,,,,,,,,,,,,,,,,,,,,,,,,,,,,,,,,,,,,,,,,,,
waveOut,4,2,21,22,20,21,21,21,22,24,26,27,25,23,23,20,20,23,24,22,24,26,24,24,24,22,21,20,20,21,20,19,21,22,22,29,39,40,40,47,53,51,52,65,86,97,99,101,98,93,87,109,117,126,128,147,149,204,224,242,246,247,216,211,188,173,166,156,132,126,124,110,90,78,90,82,88,91,97,104,99,97,95,87,63,60,52,47,44,36,32,26,23,24,23,20,19,18,19,20,23,22,24,24,23,18,21,21,21,22,22,22,23,24,24,26,24,25,25,26,26,28,27,26,,,,,,,,,,,,,,,,,,,,,,,,,,,,,,,,,,,,,,,,,,,,,,,,,,,,,,,,,,,,,,,,,,,,,,,,,,,,,,,,,,,,,,,,,,,,,,,,,,,,,,,,,,,,,,,,,,,,,,,,
waveOut,4,3,22,24,22,23,23,24,23,22,22,21,20,19,20,20,21,18,19,20,20,18,19,19,18,19,21,21,22,23,20,22,22,22,22,22,24,23,25,27,28,27,32,31,28,30,29,31,35,43,43,47,61,187,223,240,277,285,242,242,245,225,241,246,240,239,245,279,298,335,360,375,382,386,369,358,351,311,285,248,246,226,206,191,188,144,110,107,93,88,68,62,55,49,37,47,46,44,43,39,26,24,24,23,24,21,26,24,25,25,25,21,24,24,24,24,25,25,23,22,22,20,17,19,20,,,,,,,,,,,,,,,,,,,,,,,,,,,,,,,,,,,,,,,,,,,,,,,,,,,,,,,,,,,,,,,,,,,,,,,,,,,,,,,,,,,,,,,,,,,,,,,,,,,,,,,,,,,,,,,,,,,,,,,
waveOut,4,4,20,22,21,20,18,21,20,22,22,24,22,23,21,20,20,20,18,21,21,20,21,22,20,19,19,20,32,33,36,38,49,44,47,52,53,44,46,44,57,76,80,88,92,88,97,102,138,149,151,184,188,171,185,198,185,189,206,196,188,187,179,149,143,141,104,93,95,81,61,61,63,51,47,41,30,29,27,29,28,28,25,25,22,23,21,26,26,27,26,25,20,20,20,19,22,22,26,25,26,26,26,23,23,23,20,22,,,,,,,,,,,,,,,,,,,,,,,,,,,,,,,,,,,,,,,,,,,,,,,,,,,,,,,,,,,,,,,,,,,,,,,,,,,,,,,,,,,,,,,,,,,,,,,,,,,,,,,,,,,,,,,,,,,,,,,,,,,,,,,,,,,,,,,,
waveOut,4,5,21,21,18,19,20,21,21,21,21,22,19,18,19,19,20,22,24,26,26,38,47,45,44,45,38,31,40,41,43,44,69,73,81,86,92,78,88,105,128,160,178,189,234,258,247,257,262,236,243,235,230,248,242,219,307,304,293,295,288,208,195,172,155,134,125,121,114,97,96,64,49,42,39,37,33,28,24,23,21,20,18,19,21,21,21,23,22,20,20,21,20,20,21,21,21,21,20,21,21,23,25,25,24,24,23,22,20,,,,,,,,,,,,,,,,,,,,,,,,,,,,,,,,,,,,,,,,,,,,,,,,,,,,,,,,,,,,,,,,,,,,,,,,,,,,,,,,,,,,,,,,,,,,,,,,,,,,,,,,,,,,,,,,,,,,,,,,,,,,,,,,,,,,,,,
waveOut,4,6,20,22,21,20,19,20,21,21,18,19,20,19,21,21,22,21,22,21,21,22,21,20,20,22,21,20,20,20,19,18,21,20,18,19,18,16,17,18,21,23,22,23,24,20,20,21,22,31,34,36,45,47,46,65,85,84,87,87,91,89,101,104,110,101,93,101,115,113,133,147,145,166,183,190,205,208,185,168,151,121,119,125,141,168,179,173,170,164,136,114,117,134,130,124,126,118,84,82,73,66,57,55,42,37,29,26,26,23,23,20,21,21,22,22,22,23,24,25,26,29,29,28,25,24,23,20,20,21,23,23,23,24,25,23,24,24,24,22,25,21,22,21,21,17,19,19,18,19,18,19,18,20,,,,,,,,,,,,,,,,,,,,,,,,,,,,,,,,,,,,,,,,,,,,,,,,,,,,,,,,,,,,,,,,,,,,,,,,,,,,,,,,,,,,,,,,,,
waveOut,4,7,26,24,24,22,21,17,17,17,20,18,19,21,21,21,23,25,24,23,21,21,21,21,22,21,20,18,18,19,19,21,23,24,30,32,31,32,32,29,29,32,32,36,36,35,34,39,40,46,51,53,66,66,61,58,62,47,44,48,62,61,65,86,93,88,103,125,125,143,165,176,175,172,166,143,127,110,106,138,138,137,138,141,102,100,90,80,67,45,41,39,32,28,25,24,22,19,22,20,18,18,19,18,20,20,20,21,20,21,21,20,18,18,19,21,22,23,24,24,24,23,26,26,25,23,23,21,20,,,,,,,,,,,,,,,,,,,,,,,,,,,,,,,,,,,,,,,,,,,,,,,,,,,,,,,,,,,,,,,,,,,,,,,,,,,,,,,,,,,,,,,,,,,,,,,,,,,,,,,,,,,,,,,,,,,
waveOut,4,8,22,21,20,21,19,20,18,19,16,18,20,21,21,20,24,24,24,24,24,20,19,18,16,17,17,17,20,22,21,21,23,30,36,40,40,39,34,35,38,39,51,56,72,85,90,92,98,95,116,139,181,249,395,455,478,485,501,421,382,355,334,265,290,263,252,249,258,223,206,213,204,188,135,127,104,94,85,100,105,110,144,143,130,117,113,67,60,50,47,47,40,36,33,31,27,23,23,20,22,22,22,23,23,20,18,21,20,22,22,26,25,25,,,,,,,,,,,,,,,,,,,,,,,,,,,,,,,,,,,,,,,,,,,,,,,,,,,,,,,,,,,,,,,,,,,,,,,,,,,,,,,,,,,,,,,,,,,,,,,,,,,,,,,,,,,,,,,,,,,,,,,,,,,,,,,,,,
waveOut,4,9,20,20,20,21,20,21,22,22,24,23,22,21,21,20,20,20,21,20,22,21,21,21,20,20,21,21,22,23,23,23,23,21,21,18,19,20,21,23,23,26,25,26,24,28,27,31,35,50,73,91,97,142,162,163,173,181,167,160,173,217,231,258,288,307,279,272,264,328,305,308,309,301,268,265,259,253,250,153,160,147,143,119,118,95,90,71,48,37,29,27,26,24,24,23,22,21,21,21,21,23,23,23,24,22,21,19,20,22,21,20,22,23,24,25,27,25,26,22,23,23,22,24,25,24,22,23,,,,,,,,,,,,,,,,,,,,,,,,,,,,,,,,,,,,,,,,,,,,,,,,,,,,,,,,,,,,,,,,,,,,,,,,,,,,,,,,,,,,,,,,,,,,,,,,,,,,,,,,,,,,,,,,,,,,
waveIn,4,0,18,18,19,19,19,18,20,20,19,18,21,19,20,22,22,21,20,21,21,23,25,25,26,26,42,43,45,47,70,89,116,122,152,263,322,326,349,403,370,344,419,600,661,725,826,889,884,919,919,322,326,931,993,948,906,854,840,658,689,674,667,644,674,629,593,548,490,433,347,267,200,139,96,79,64,43,39,33,31,28,27,26,23,23,25,26,25,26,28,26,24,23,22,20,20,20,20,20,19,19,18,19,19,19,20,21,19,20,19,18,,,,,,,,,,,,,,,,,,,,,,,,,,,,,,,,,,,,,,,,,,,,,,,,,,,,,,,,,,,,,,,,,,,,,,,,,,,,,,,,,,,,,,,,,,,,,,,,,,,,,,,,,,,,,,,,,,,,,,,,,,,,,,,,,,,,
waveIn,4,1,21,21,20,22,23,27,28,30,31,40,41,53,55,55,50,51,49,64,76,78,76,75,122,138,250,267,286,307,309,267,295,362,423,511,573,647,729,759,786,828,885,845,838,873,871,785,820,895,838,838,876,870,809,780,695,605,544,439,416,396,385,280,233,161,139,107,71,57,52,48,51,50,46,39,36,28,27,26,26,27,24,22,22,22,22,22,25,25,23,25,26,25,24,25,23,20,20,21,20,19,24,24,23,23,25,24,,,,,,,,,,,,,,,,,,,,,,,,,,,,,,,,,,,,,,,,,,,,,,,,,,,,,,,,,,,,,,,,,,,,,,,,,,,,,,,,,,,,,,,,,,,,,,,,,,,,,,,,,,,,,,,,,,,,,,,,,,,,,,,,,,,,,,,,
waveIn,4,2,21,20,24,25,24,26,26,22,23,23,20,18,20,20,22,21,23,22,21,20,21,21,21,22,22,22,21,21,20,19,19,22,21,21,23,22,20,21,23,22,22,22,22,21,20,21,20,21,21,21,21,22,21,22,28,30,29,32,49,84,87,91,95,144,130,141,158,210,223,289,326,374,359,338,305,291,309,456,503,563,562,583,533,575,533,596,548,530,472,476,424,505,576,594,580,570,485,339,241,200,107,80,62,52,43,39,33,28,27,24,22,23,23,22,24,22,21,20,21,19,21,23,21,21,21,20,18,20,19,21,22,22,21,22,20,,,,,,,,,,,,,,,,,,,,,,,,,,,,,,,,,,,,,,,,,,,,,,,,,,,,,,,,,,,,,,,,,,,,,,,,,,,,,,,,,,,,,,,,,,,,,,,,,,,,,,,,,,,
waveIn,4,3,17,18,17,19,22,22,23,23,23,21,22,21,22,21,20,20,20,18,18,18,16,16,16,17,17,19,22,23,43,46,47,47,101,118,157,163,167,167,217,228,243,291,302,279,274,286,259,263,246,237,205,269,284,400,472,564,609,678,711,718,710,677,668,634,652,603,685,680,652,612,622,546,519,511,466,431,355,244,157,131,103,77,67,52,37,33,27,25,22,23,24,24,25,24,24,24,24,23,23,21,22,22,21,21,21,22,22,24,23,23,23,22,24,25,26,24,23,21,21,19,,,,,,,,,,,,,,,,,,,,,,,,,,,,,,,,,,,,,,,,,,,,,,,,,,,,,,,,,,,,,,,,,,,,,,,,,,,,,,,,,,,,,,,,,,,,,,,,,,,,,,,,,,,,,,,,,,,,,,,,,,
waveIn,4,4,26,26,26,25,27,27,26,27,27,27,26,25,22,19,15,18,20,21,22,24,23,22,22,21,20,20,22,22,23,24,24,21,19,26,28,49,65,80,86,125,209,270,398,433,501,610,695,703,722,823,852,870,863,922,912,873,848,894,877,796,735,674,578,461,423,405,353,284,263,179,100,72,53,40,38,33,31,34,32,31,32,32,28,29,29,26,24,23,21,20,19,20,20,20,20,22,21,20,21,23,24,23,23,22,22,,,,,,,,,,,,,,,,,,,,,,,,,,,,,,,,,,,,,,,,,,,,,,,,,,,,,,,,,,,,,,,,,,,,,,,,,,,,,,,,,,,,,,,,,,,,,,,,,,,,,,,,,,,,,,,,,,,,,,,,,,,,,,,,,,,,,,,,,
waveIn,4,5,19,18,18,20,20,20,19,20,20,20,22,22,22,22,22,20,22,22,23,22,20,21,20,20,20,23,21,21,21,20,18,18,19,19,21,22,25,27,28,51,60,60,60,62,48,43,83,109,174,216,240,234,254,248,257,288,367,486,567,655,707,773,782,776,746,713,614,586,558,516,481,479,458,433,398,400,382,278,205,181,127,102,63,46,38,35,33,32,28,25,26,28,25,27,28,26,23,24,24,22,22,26,25,22,24,23,20,20,25,23,24,23,26,20,23,22,25,,,,,,,,,,,,,,,,,,,,,,,,,,,,,,,,,,,,,,,,,,,,,,,,,,,,,,,,,,,,,,,,,,,,,,,,,,,,,,,,,,,,,,,,,,,,,,,,,,,,,,,,,,,,,,,,,,,,,,,,,,,,,
waveIn,4,6,21,21,23,23,23,23,25,24,23,23,24,23,22,26,23,22,21,22,18,20,21,21,19,21,20,18,20,22,20,20,22,21,21,21,21,19,21,19,19,21,22,20,20,19,20,42,46,70,79,99,194,223,221,226,229,179,211,220,221,250,257,266,290,306,298,390,592,665,721,789,780,681,695,644,614,704,718,732,762,764,697,720,647,704,660,604,492,452,253,216,196,170,151,143,132,127,111,83,75,61,54,40,33,32,26,24,23,21,18,18,19,18,19,21,21,23,24,22,22,21,18,19,20,20,21,22,21,21,20,,,,,,,,,,,,,,,,,,,,,,,,,,,,,,,,,,,,,,,,,,,,,,,,,,,,,,,,,,,,,,,,,,,,,,,,,,,,,,,,,,,,,,,,,,,,,,,,,,,,,,,,,,,,,,,,,
waveIn,4,7,25,24,24,23,22,22,22,23,22,22,19,18,17,20,21,25,26,25,25,26,22,23,24,23,21,21,19,20,20,20,19,21,21,19,21,21,21,19,23,22,22,21,23,22,22,31,42,79,91,107,112,124,145,255,392,412,422,446,496,425,456,621,660,648,781,796,773,895,989,962,1016,999,947,866,881,861,835,771,821,777,701,687,629,463,339,305,199,189,168,108,72,65,55,46,39,33,28,23,25,24,22,25,26,25,25,25,24,24,24,25,24,23,22,21,21,21,20,22,21,23,23,23,21,24,22,22,,,,,,,,,,,,,,,,,,,,,,,,,,,,,,,,,,,,,,,,,,,,,,,,,,,,,,,,,,,,,,,,,,,,,,,,,,,,,,,,,,,,,,,,,,,,,,,,,,,,,,,,,,,,,,,,,,,,
waveIn,4,8,16,20,20,20,21,21,20,21,23,21,23,22,24,22,23,22,22,19,22,25,24,23,24,23,19,22,21,22,22,22,21,21,23,23,24,22,22,21,20,19,20,20,18,19,19,20,20,21,20,21,21,21,20,20,20,20,21,20,23,22,21,22,21,20,23,37,66,77,80,203,260,287,308,322,311,304,318,359,460,516,580,659,732,786,802,805,794,780,819,827,797,797,797,708,708,750,698,674,676,658,636,669,629,542,452,374,273,211,217,201,157,131,109,77,71,69,67,62,60,62,35,31,29,30,26,26,27,25,25,23,22,22,22,24,25,24,27,29,,,,,,,,,,,,,,,,,,,,,,,,,,,,,,,,,,,,,,,,,,,,,,,,,,,,,,,,,,,,,,,,,,,,,,,,,,,,,,,,,,,,,,,,,,,,,,,,,,,,,,,,
waveIn,4,9,22,24,22,21,20,19,18,19,21,21,23,22,21,18,19,18,19,20,22,22,23,22,23,25,28,34,55,61,61,69,70,61,58,67,76,82,83,100,108,139,155,213,285,320,330,465,673,728,783,871,895,806,828,848,812,766,769,808,730,682,667,608,421,417,411,330,273,235,192,101,77,60,48,45,38,34,32,32,33,34,33,35,33,28,29,27,26,23,27,25,28,24,26,24,24,21,23,21,19,22,22,24,23,24,22,22,19,,,,,,,,,,,,,,,,,,,,,,,,,,,,,,,,,,,,,,,,,,,,,,,,,,,,,,,,,,,,,,,,,,,,,,,,,,,,,,,,,,,,,,,,,,,,,,,,,,,,,,,,,,,,,,,,,,,,,,,,,,,,,,,,,,,,,,,
doubleTap,4,0,28,31,31,29,30,38,37,36,37,35,29,28,28,28,28,28,35,36,36,35,32,33,36,49,50,51,45,77,116,154,158,160,147,116,62,57,59,60,58,52,49,82,103,112,113,117,94,69,53,51,36,33,28,26,24,24,22,22,22,23,24,24,24,25,24,22,20,20,19,19,19,17,21,21,23,24,25,22,23,20,22,22,21,20,22,21,20,21,20,20,22,22,22,24,23,19,19,24,22,23,,,,,,,,,,,,,,,,,,,,,,,,,,,,,,,,,,,,,,,,,,,,,,,,,,,,,,,,,,,,,,,,,,,,,,,,,,,,,,,,,,,,,,,,,,,,,,,,,,,,,,,,,,,,,,,,,,,,,,,,,,,,,,,,,,,,,,,,,,,,,,
doubleTap,4,1,22,26,27,26,26,24,19,22,22,24,31,36,34,39,42,46,44,44,42,37,27,29,31,30,32,49,68,69,69,77,116,224,244,246,245,228,116,89,103,104,103,104,121,177,184,188,188,168,90,68,50,42,32,26,24,25,24,23,23,24,21,22,22,20,19,20,21,21,21,23,23,26,28,29,27,26,21,19,17,18,20,21,21,20,21,21,22,21,22,20,19,,,,,,,,,,,,,,,,,,,,,,,,,,,,,,,,,,,,,,,,,,,,,,,,,,,,,,,,,,,,,,,,,,,,,,,,,,,,,,,,,,,,,,,,,,,,,,,,,,,,,,,,,,,,,,,,,,,,,,,,,,,,,,,,,,,,,,,,,,,,,,,,,,,,,,,
doubleTap,4,2,21,21,20,20,22,21,22,22,22,22,22,22,24,23,23,22,23,23,31,30,32,39,42,49,56,57,72,73,71,67,68,48,50,66,87,125,130,133,124,128,200,217,226,230,223,136,105,93,85,77,71,65,42,52,68,68,69,67,55,31,28,24,20,25,22,22,22,22,17,17,18,17,17,21,20,21,21,23,20,20,22,24,26,25,25,23,19,16,16,15,17,22,25,25,26,26,23,20,21,20,20,19,20,19,19,22,23,23,24,26,,,,,,,,,,,,,,,,,,,,,,,,,,,,,,,,,,,,,,,,,,,,,,,,,,,,,,,,,,,,,,,,,,,,,,,,,,,,,,,,,,,,,,,,,,,,,,,,,,,,,,,,,,,,,,,,,,,,,,,,,,,,,,,,,,,,
doubleTap,4,3,20,20,17,20,19,18,17,18,16,18,17,20,20,21,21,21,18,17,15,16,22,24,28,32,33,35,46,58,82,94,94,92,85,64,46,44,54,55,51,52,50,41,104,137,143,144,145,112,82,81,86,83,78,75,81,84,88,87,78,59,43,32,30,29,27,23,24,23,21,24,22,20,21,22,19,20,21,21,21,20,20,20,19,21,24,24,25,26,26,24,23,24,23,23,24,22,23,23,22,23,24,20,21,22,19,21,,,,,,,,,,,,,,,,,,,,,,,,,,,,,,,,,,,,,,,,,,,,,,,,,,,,,,,,,,,,,,,,,,,,,,,,,,,,,,,,,,,,,,,,,,,,,,,,,,,,,,,,,,,,,,,,,,,,,,,,,,,,,,,,,,,,,,,,
doubleTap,4,4,16,18,18,18,19,19,20,20,22,21,22,24,25,24,25,24,21,19,21,20,33,38,42,43,58,70,75,75,74,66,47,64,66,67,69,77,258,322,328,331,336,229,125,113,104,81,60,53,40,36,28,28,26,24,23,26,24,24,26,25,22,21,20,17,18,17,19,19,23,26,24,24,23,24,26,24,26,22,23,21,21,20,20,16,17,19,18,19,20,20,19,20,22,20,19,19,20,16,19,22,21,21,22,22,20,24,22,21,22,22,19,,,,,,,,,,,,,,,,,,,,,,,,,,,,,,,,,,,,,,,,,,,,,,,,,,,,,,,,,,,,,,,,,,,,,,,,,,,,,,,,,,,,,,,,,,,,,,,,,,,,,,,,,,,,,,,,,,,,,,,,,,,,,,,,,,,
doubleTap,4,5,21,21,23,21,20,20,20,18,19,19,20,21,22,21,21,21,32,32,33,42,42,39,42,52,54,55,52,54,45,38,39,41,37,73,111,118,122,127,113,79,84,82,73,69,64,39,37,41,41,40,40,30,23,23,22,20,17,18,18,18,19,22,22,23,24,22,19,19,18,18,20,22,24,27,30,30,29,27,23,19,22,24,23,23,24,22,22,22,24,25,25,25,25,23,23,27,27,26,25,,,,,,,,,,,,,,,,,,,,,,,,,,,,,,,,,,,,,,,,,,,,,,,,,,,,,,,,,,,,,,,,,,,,,,,,,,,,,,,,,,,,,,,,,,,,,,,,,,,,,,,,,,,,,,,,,,,,,,,,,,,,,,,,,,,,,,,,,,,,,,,
doubleTap,4,6,19,21,21,22,21,21,22,21,21,21,20,17,17,15,15,19,20,21,21,24,21,22,22,22,19,21,22,22,22,22,23,23,22,32,37,37,40,41,34,28,29,35,42,50,52,53,57,144,163,172,173,171,107,74,54,57,55,52,50,42,35,33,30,27,26,23,24,22,22,20,18,19,19,19,22,22,21,22,23,20,19,20,21,21,22,22,24,22,22,20,21,18,20,18,18,18,18,17,19,20,20,22,21,21,19,18,15,17,16,16,16,19,17,18,20,21,20,21,,,,,,,,,,,,,,,,,,,,,,,,,,,,,,,,,,,,,,,,,,,,,,,,,,,,,,,,,,,,,,,,,,,,,,,,,,,,,,,,,,,,,,,,,,,,,,,,,,,,,,,,,,,,,,,,,,,,,,,,,,,,
doubleTap,4,7,16,17,17,17,18,18,20,21,21,19,21,19,19,20,22,19,19,19,17,17,19,19,20,20,19,18,18,17,17,18,20,21,26,29,37,41,41,45,53,70,72,72,72,117,134,149,152,152,119,87,61,64,62,58,58,49,30,24,25,23,22,22,24,25,24,23,22,21,20,21,23,24,24,24,21,21,20,19,18,18,19,18,18,17,18,19,18,19,20,22,19,21,21,20,19,19,17,18,19,19,19,23,23,23,23,22,19,19,19,19,24,24,23,22,22,18,,,,,,,,,,,,,,,,,,,,,,,,,,,,,,,,,,,,,,,,,,,,,,,,,,,,,,,,,,,,,,,,,,,,,,,,,,,,,,,,,,,,,,,,,,,,,,,,,,,,,,,,,,,,,,,,,,,,,,,,,,,,,,
doubleTap,4,8,21,20,19,19,23,24,23,25,29,27,27,27,25,24,22,23,30,32,34,40,43,45,43,42,37,37,34,40,38,38,34,39,50,71,74,78,75,66,42,37,50,71,72,74,75,65,44,45,43,40,35,33,23,23,22,23,20,18,17,21,22,22,23,24,20,18,21,20,20,23,29,29,32,32,31,27,26,23,21,18,17,16,17,18,18,17,19,18,19,20,22,21,21,21,21,21,22,22,21,23,24,22,25,26,24,25,26,,,,,,,,,,,,,,,,,,,,,,,,,,,,,,,,,,,,,,,,,,,,,,,,,,,,,,,,,,,,,,,,,,,,,,,,,,,,,,,,,,,,,,,,,,,,,,,,,,,,,,,,,,,,,,,,,,,,,,,,,,,,,,,,,,,,,,,
doubleTap,4,9,21,20,20,20,20,20,20,21,20,21,20,21,21,26,27,30,32,43,49,50,51,50,41,32,29,28,27,48,51,52,50,51,74,90,105,107,108,87,69,57,67,66,64,62,55,39,37,36,35,30,26,26,24,24,22,19,20,19,19,19,19,17,18,19,18,19,21,23,25,28,27,26,24,24,22,22,22,22,18,18,19,18,18,23,22,21,23,24,20,19,22,21,21,22,24,24,25,23,,,,,,,,,,,,,,,,,,,,,,,,,,,,,,,,,,,,,,,,,,,,,,,,,,,,,,,,,,,,,,,,,,,,,,,,,,,,,,,,,,,,,,,,,,,,,,,,,,,,,,,,,,,,,,,,,,,,,,,,,,,,,,,,,,,,,,,,,,,,,,,,
