fist,1,0,151,198,198,253,247,235,281,292,248,266,266,190,231,229,211,202,210,149,177,194,195,176,171,149,195,195,192,196,317,288,289,293,304,186,223,228,242,267,264,238,270,322,308,316,354,368,315,317,308,272,254,276,293,290,286,277,308,315,341,361,346,329,301,272,320,324,304,323,371,319,338,337,315,307,333,381,375,372,341,310,250,265,306,387,405,381,418,485,418,453,485,465,388,416,359,346,331,348,341,396,388,393,368,361,326,333,324,332,389,446,619,840,1107,1246,1292,1325,1295,1220,1113,1103,993,904,725,846,793,776,798,790,614,576,572,600,599,564,577,611,502,,,,,,,,,,,,,,,,,,,,,,,,,,,,,,,,,,,,,,,,,,,,,,,,,,,,,,,,,,,,,,,,,,,,,,,,,,,,,,,,,,,,,,,,,,,,,,,,,,,,,,,,,
fist,1,1,236,242,291,232,265,280,281,280,292,269,248,284,272,252,234,226,191,157,156,173,221,202,188,192,211,171,180,175,186,205,250,303,365,401,506,504,474,476,446,307,492,775,969,1023,1107,1092,1049,941,982,970,935,821,780,711,631,589,664,653,609,606,654,558,558,653,633,591,588,531,425,469,502,499,513,526,459,428,410,426,354,408,404,419,384,374,335,325,323,312,322,297,263,202,189,174,170,170,189,189,187,187,182,208,214,221,244,301,316,311,365,382,402,370,384,360,357,312,353,354,337,334,382,355,385,378,382,366,380,334,354,325,298,255,264,227,275,269,308,427,570,717,940,1146,1247,1321,1285,1291,1189,1104,990,972,784,717,648,642,655,631,588,576,536,473,509,519,513,542,542,,,,,,,,,,,,,,,,,,,,,,,,,,,,,,,,,,,,,,,,,,,,,,,,,,,,,,,,,,,,,,,,,,,,,,,,,,,,,
fist,1,2,315,299,328,434,439,435,478,499,389,380,386,378,328,307,347,394,343,345,351,330,259,258,251,270,303,296,303,304,316,251,244,275,265,258,256,251,205,202,148,112,126,135,146,167,197,266,403,458,470,469,444,407,375,373,400,411,431,437,435,441,452,410,406,429,406,393,376,387,361,366,367,368,329,422,410,415,400,452,389,416,404,396,363,373,360,376,369,364,331,306,316,342,334,333,380,359,320,292,268,276,261,268,281,295,228,320,424,550,628,736,806,846,811,786,723,666,664,788,899,1055,1077,1123,1160,1138,1087,1094,1012,931,858,804,746,804,753,720,635,607,489,393,486,515,527,509,598,545,486,465,521,416,415,,,,,,,,,,,,,,,,,,,,,,,,,,,,,,,,,,,,,,,,,,,,,,,,,,,,,,,,,,,,,,,,,,,,,,,,,,,,,,,,,,,,,,,,,,,,,
fist,1,3,372,522,438,436,454,479,324,366,370,332,362,423,390,374,371,290,215,243,241,247,256,311,290,294,292,306,312,312,355,349,350,342,345,360,430,428,398,410,382,330,342,335,323,291,307,321,300,286,285,327,300,363,376,412,381,374,330,328,297,305,356,379,417,425,462,507,494,491,490,430,348,324,369,378,401,428,467,427,423,422,389,354,355,337,295,275,275,271,293,320,354,381,419,545,653,754,858,932,953,951,934,976,988,1135,1134,1170,1109,1061,901,849,711,640,605,591,608,639,621,670,539,505,496,500,379,466,460,437,473,453,372,501,509,457,,,,,,,,,,,,,,,,,,,,,,,,,,,,,,,,,,,,,,,,,,,,,,,,,,,,,,,,,,,,,,,,,,,,,,,,,,,,,,,,,,,,,,,,,,,,,,,,,,,,,,,,,,,,,,
fist,1,4,348,320,284,277,279,214,205,245,306,298,309,315,295,233,247,253,471,486,570,605,611,560,556,467,417,435,328,330,350,343,296,299,325,307,307,302,293,279,278,264,285,259,248,277,279,251,346,342,313,415,429,441,457,495,426,411,366,363,313,311,345,414,380,386,433,440,399,397,476,438,425,369,393,277,269,271,387,389,416,438,433,369,362,391,380,386,419,483,436,418,413,357,261,254,240,207,160,102,143,233,276,480,792,881,1001,1076,1027,863,904,889,896,950,944,888,859,870,902,974,952,868,768,704,567,516,578,565,517,494,507,435,482,531,,,,,,,,,,,,,,,,,,,,,,,,,,,,,,,,,,,,,,,,,,,,,,,,,,,,,,,,,,,,,,,,,,,,,,,,,,,,,,,,,,,,,,,,,,,,,,,,,,,,,,,,,,,,,,
fist,1,5,256,244,250,302,320,313,310,313,364,334,394,404,421,334,333,267,318,281,279,333,357,374,393,400,365,371,298,274,277,249,192,210,206,181,165,168,167,179,217,225,229,243,260,273,293,313,344,353,333,341,395,387,377,442,446,385,378,390,349,326,406,386,377,342,422,363,368,392,401,323,306,322,280,297,312,340,325,341,333,367,355,372,503,514,480,470,456,321,287,291,322,355,403,449,455,429,388,296,266,337,356,370,388,395,325,335,347,370,398,461,530,598,777,793,862,870,1020,994,1082,1112,1164,1099,1097,1083,1038,1014,973,901,783,924,861,842,831,859,643,623,561,517,588,591,613,608,634,650,617,656,651,642,626,633,616,650,679,578,603,603,613,608,587,,,,,,,,,,,,,,,,,,,,,,,,,,,,,,,,,,,,,,,,,,,,,,,,,,,,,,,,,,,,,,,,,,,,,,,,,,,,,,,,,,,
fist,1,6,338,361,349,363,395,369,351,393,402,345,344,344,307,248,259,267,256,202,213,192,172,156,204,196,202,213,216,194,267,266,270,273,281,214,208,202,232,260,288,300,328,336,323,295,317,358,351,362,371,355,280,336,306,301,326,365,323,338,377,376,342,333,338,302,290,291,299,280,308,300,305,308,310,278,303,292,342,390,401,385,391,365,315,295,291,297,252,269,318,307,331,395,571,657,708,758,789,749,840,871,929,1018,1114,1098,1168,1243,1233,1110,1036,946,776,654,680,756,736,719,718,680,575,571,620,656,669,691,651,570,548,565,568,552,565,502,476,375,374,327,,,,,,,,,,,,,,,,,,,,,,,,,,,,,,,,,,,,,,,,,,,,,,,,,,,,,,,,,,,,,,,,,,,,,,,,,,,,,,,,,,,,,,,,,,,,,,,,,,,,,,,,,,
fist,1,7,460,434,432,427,297,216,204,194,177,166,143,131,132,175,174,173,172,156,185,190,195,197,221,246,325,339,365,367,332,245,224,305,310,297,308,314,259,277,278,276,295,251,282,301,299,278,322,269,282,277,294,295,317,315,318,310,278,296,261,271,315,319,305,308,385,359,353,353,380,306,362,386,411,391,387,370,343,283,274,301,258,259,313,353,323,364,357,316,276,366,321,326,315,362,328,353,359,391,376,337,320,301,253,203,192,161,198,236,266,303,303,281,269,258,313,326,327,399,415,382,415,505,579,584,627,686,744,753,826,952,982,937,899,840,749,653,679,660,679,607,606,575,537,561,544,608,571,571,525,509,415,372,415,427,432,488,482,480,,,,,,,,,,,,,,,,,,,,,,,,,,,,,,,,,,,,,,,,,,,,,,,,,,,,,,,,,,,,,,,,,,,,,,,,,,,,,,,,,,,,
fist,1,8,390,373,288,242,234,228,195,172,193,181,168,160,158,156,192,192,212,235,229,207,215,249,233,235,233,283,315,354,371,382,381,334,366,393,407,409,422,396,396,373,414,423,413,366,426,373,353,381,394,344,375,452,486,495,567,596,578,538,537,483,425,395,392,444,436,444,442,419,355,383,407,475,504,521,554,649,712,749,816,784,727,774,962,931,948,964,911,728,820,905,908,853,837,799,714,667,668,619,474,533,571,559,584,596,493,450,533,533,549,557,557,460,424,389,431,413,454,567,583,582,,,,,,,,,,,,,,,,,,,,,,,,,,,,,,,,,,,,,,,,,,,,,,,,,,,,,,,,,,,,,,,,,,,,,,,,,,,,,,,,,,,,,,,,,,,,,,,,,,,,,,,,,,,,,,,,,,,,,,,,,,
fist,1,9,393,412,328,309,324,331,309,317,331,384,362,370,320,298,221,221,174,189,180,146,128,133,126,124,119,123,146,244,246,248,271,260,177,203,215,203,238,237,261,259,254,221,212,247,271,305,304,325,263,246,252,310,295,309,370,469,487,500,511,498,383,334,339,331,281,291,321,294,271,260,294,249,246,315,337,289,356,389,360,379,404,381,368,436,408,409,388,427,356,377,422,451,409,472,520,470,512,519,575,584,620,581,594,580,545,521,516,581,502,534,613,685,656,701,702,632,556,569,506,616,670,657,703,738,625,554,588,507,672,709,801,799,786,652,600,505,533,542,495,526,491,534,513,518,473,492,351,350,336,359,355,367,383,,,,,,,,,,,,,,,,,,,,,,,,,,,,,,,,,,,,,,,,,,,,,,,,,,,,,,,,,,,,,,,,,,,,,,,,,,,,,,,,,,,,,,,,,
fingersSpread,1,0,32,33,35,25,26,24,24,18,18,19,17,20,20,21,21,24,31,46,117,323,369,387,438,527,510,546,595,725,819,801,864,944,968,1017,1073,1098,1087,1071,1026,1041,1064,1084,1082,1040,1058,1057,1139,1163,1168,1216,1188,1176,1142,1255,1210,1229,1143,1151,1076,1135,1088,1133,1081,960,775,696,592,635,681,720,735,650,528,467,364,301,280,251,215,207,215,184,210,215,194,158,147,91,70,40,33,33,34,33,33,38,48,48,52,53,49,,,,,,,,,,,,,,,,,,,,,,,,,,,,,,,,,,,,,,,,,,,,,,,,,,,,,,,,,,,,,,,,,,,,,,,,,,,,,,,,,,,,,,,,,,,,,,,,,,,,,,,,,,,,,,,,,,,,,,,,,,,,,,,,,,,,,,,,,,,,,
fingersSpread,1,1,741,768,803,733,731,667,819,810,882,916,1082,1066,1097,1085,1120,999,984,1027,1111,1136,1123,1087,1139,1135,1061,1084,1200,1196,1209,1247,1326,1257,1233,1143,1203,1080,1134,1169,1184,1168,1172,1140,1074,1160,1084,1126,1042,1047,901,833,713,668,496,468,388,337,339,394,357,319,316,299,191,172,249,305,353,389,391,341,283,203,95,67,62,54,49,49,44,39,41,37,33,30,29,26,27,32,33,35,36,33,167,203,206,207,209,131,61,48,48,42,33,30,31,26,28,30,30,29,29,27,31,32,30,31,35,33,31,34,37,33,34,35,34,28,32,36,40,43,45,44,39,37,37,34,32,33,30,22,25,25,23,27,30,30,31,32,31,32,30,32,31,,,,,,,,,,,,,,,,,,,,,,,,,,,,,,,,,,,,,,,,,,,,,,,,,,,,,,,,,,,,,,,,,,,,,,,,,,,,,,,,,,,,,,,,,
fingersSpread,1,2,26,27,28,26,29,30,28,35,75,81,85,116,129,130,238,246,309,367,416,410,427,468,443,464,521,549,537,617,589,552,563,674,663,735,810,863,823,897,980,1000,1013,1060,1055,1027,1015,1073,1127,1109,1159,1149,1076,1007,965,969,972,979,943,958,878,977,1006,1016,1036,1045,1031,1049,1088,1182,1204,1124,1113,1216,1223,1280,1354,1311,1334,1372,1253,1184,1203,981,728,751,687,621,648,658,556,520,492,430,369,365,376,396,378,373,411,369,307,296,314,261,287,300,281,222,201,162,97,84,68,,,,,,,,,,,,,,,,,,,,,,,,,,,,,,,,,,,,,,,,,,,,,,,,,,,,,,,,,,,,,,,,,,,,,,,,,,,,,,,,,,,,,,,,,,,,,,,,,,,,,,,,,,,,,,,,,,,,,,,,,,,,,,,,,
fingersSpread,1,3,38,35,30,34,39,35,36,36,46,49,53,55,60,56,115,131,136,143,166,181,272,316,357,376,386,353,387,459,495,535,633,735,816,826,958,940,924,879,867,711,710,725,871,1053,1170,1221,1253,1214,1077,1036,1054,1018,993,1014,1021,985,1138,1121,1188,1164,1260,1127,1077,1112,1150,1111,1176,1227,1133,1122,1021,980,1037,1103,1084,1148,1134,1087,1030,1078,1076,1080,1077,1083,1080,1034,995,1001,1012,986,1014,954,847,764,610,479,507,552,625,607,613,593,547,509,661,642,612,628,557,363,294,291,215,167,115,73,53,42,35,44,47,51,53,63,57,,,,,,,,,,,,,,,,,,,,,,,,,,,,,,,,,,,,,,,,,,,,,,,,,,,,,,,,,,,,,,,,,,,,,,,,,,,,,,,,,,,,,,,,,,,,,,,,,,,,,,,,,,,,,,,,,,,,,
fingersSpread,1,4,34,45,46,46,47,53,45,44,44,42,30,33,88,105,156,207,395,451,510,526,565,503,499,448,440,460,523,572,593,628,636,623,623,683,789,806,828,829,809,768,805,823,829,883,879,851,900,1051,1146,1222,1248,1257,1183,1157,1110,1176,1182,1128,1082,1104,1044,1134,1176,1235,1266,1276,1195,1193,1155,1110,1162,1177,1148,1075,1032,1205,1245,1292,1336,1397,1130,984,881,776,661,655,621,612,607,534,522,487,554,582,549,526,565,567,587,588,577,547,451,351,295,284,249,257,278,272,263,256,183,87,56,45,44,44,36,38,36,37,36,48,48,53,,,,,,,,,,,,,,,,,,,,,,,,,,,,,,,,,,,,,,,,,,,,,,,,,,,,,,,,,,,,,,,,,,,,,,,,,,,,,,,,,,,,,,,,,,,,,,,,,,,,,,,,,,,,,,,,,,,,
fingersSpread,1,5,141,191,294,397,470,492,527,526,459,388,360,270,143,170,213,230,331,431,471,563,667,764,804,791,940,1027,985,1029,1085,1011,945,977,956,974,1006,1014,1064,1132,1200,1179,1173,1174,1100,1044,1025,981,958,988,1010,1109,1255,1264,1225,1237,1204,1116,1101,1172,1192,1159,1150,1222,1238,1178,1173,1099,933,866,781,682,826,824,867,867,838,681,659,432,367,349,366,447,454,452,465,607,648,712,732,714,572,433,251,163,142,116,91,54,46,41,52,51,47,46,46,35,36,36,31,30,28,30,25,,,,,,,,,,,,,,,,,,,,,,,,,,,,,,,,,,,,,,,,,,,,,,,,,,,,,,,,,,,,,,,,,,,,,,,,,,,,,,,,,,,,,,,,,,,,,,,,,,,,,,,,,,,,,,,,,,,,,,,,,,,,,,,,,
fingersSpread,1,6,28,27,29,28,26,28,28,38,42,44,46,50,62,62,65,70,75,70,230,251,258,262,342,386,422,467,498,486,407,401,378,393,453,482,522,565,578,602,611,681,721,756,889,1021,1069,1053,1103,1023,1037,1026,996,935,988,964,939,981,990,1001,964,992,1034,1166,1175,1195,1197,1163,1070,1003,923,842,890,869,859,957,1000,995,1029,1104,1030,1064,1048,1016,1005,1002,914,1003,1011,950,993,1027,984,926,862,778,735,635,588,595,575,482,454,516,552,592,608,562,568,471,392,376,351,200,204,179,159,154,167,172,178,165,154,141,113,71,51,59,65,64,65,64,53,35,34,20,19,20,19,,,,,,,,,,,,,,,,,,,,,,,,,,,,,,,,,,,,,,,,,,,,,,,,,,,,,,,,,,,,,,,,,,,,,,,,,,,,,,,,,,,,,,,,,,,,,,,,,,,,,,,,,
fingersSpread,1,7,206,247,319,316,315,356,345,307,295,340,303,310,272,284,309,334,365,375,364,337,396,356,387,426,507,494,533,522,540,448,478,490,575,552,610,622,667,666,704,807,804,817,812,854,805,897,903,1031,1102,1092,1038,1036,979,949,1043,1187,1215,1206,1222,1180,1085,1081,1080,1052,1054,1002,954,907,919,867,889,887,880,893,904,984,947,962,964,979,880,908,947,932,944,946,1012,970,904,852,814,748,715,665,663,622,558,484,482,468,461,431,423,460,416,421,419,434,348,663,622,558,273,297,337,322,318,305,264,218,210,172,170,135,113,105,143,151,143,142,134,80,46,50,54,50,52,49,41,37,37,29,28,,,,,,,,,,,,,,,,,,,,,,,,,,,,,,,,,,,,,,,,,,,,,,,,,,,,,,,,,,,,,,,,,,,,,,,,,,,,,,,,,,,,,,,,,,,,,,,,,,,
fingersSpread,1,8,28,26,25,27,27,28,34,35,57,72,98,110,111,102,99,140,185,200,232,322,382,390,463,535,527,628,627,635,627,660,557,549,536,499,457,451,491,464,555,547,558,551,641,569,571,587,577,484,516,693,861,862,912,930,812,787,864,867,909,993,1020,1041,1072,1068,1070,1034,1074,1039,1087,1102,1029,934,966,917,864,883,1000,1019,1039,1050,1069,1085,1073,995,1094,1078,985,951,1063,1019,1031,970,975,987,945,869,895,846,780,679,773,846,865,824,833,894,874,1006,987,967,911,895,690,647,730,606,492,504,513,393,389,449,450,410,389,414,332,329,318,283,226,220,182,217,212,207,207,173,96,91,88,63,68,95,204,211,213,211,201,95,,,,,,,,,,,,,,,,,,,,,,,,,,,,,,,,,,,,,,,,,,,,,,,,,,,,,,,,,,,,,,,,,,,,,,,,,,,,,,,,,,,,,,,,,,,,
fingersSpread,1,9,172,189,295,341,353,383,390,306,360,409,371,358,392,334,396,452,485,531,537,517,516,561,532,596,605,681,649,703,668,745,749,821,864,956,901,848,886,951,893,942,997,1055,995,1079,1045,1026,971,969,894,1035,1023,991,989,1040,858,888,951,895,844,1037,1095,1028,1103,1115,996,903,923,882,840,830,878,952,924,931,929,897,757,739,833,845,931,982,1057,1050,1106,1119,1076,1013,949,816,631,687,665,598,676,694,696,684,726,671,651,629,607,520,506,489,357,334,429,418,471,516,581,520,494,442,375,232,206,262,245,233,236,234,155,122,128,111,78,70,70,51,55,52,50,45,39,33,28,26,30,,,,,,,,,,,,,,,,,,,,,,,,,,,,,,,,,,,,,,,,,,,,,,,,,,,,,,,,,,,,,,,,,,,,,,,,,,,,,,,,,,,,,,,,,,,,,,,,,,,,,
waveOut,1,0,46,50,51,50,43,48,272,317,415,490,607,741,811,812,800,787,696,676,711,790,840,891,888,948,1010,1051,1038,1058,1053,1191,1143,1122,1159,1153,957,956,1045,1101,1158,1203,1407,1376,1362,1370,1398,1252,1333,1326,1235,1213,1176,1060,1068,1155,1076,1052,1063,1068,1136,1223,1204,1210,1155,1062,990,1016,1051,1056,1108,1203,1238,1224,1272,1205,1124,1150,1133,1051,1094,1072,959,990,999,879,846,818,669,740,753,779,815,900,845,911,880,858,778,706,611,540,499,467,537,475,467,458,438,309,266,263,252,232,173,229,203,199,198,194,203,205,201,207,204,161,170,180,,,,,,,,,,,,,,,,,,,,,,,,,,,,,,,,,,,,,,,,,,,,,,,,,,,,,,,,,,,,,,,,,,,,,,,,,,,,,,,,,,,,,,,,,,,,,,,,,,,,,,,,,,,,,,,,,,,,
waveOut,1,1,590,587,646,671,731,761,858,934,960,1032,1061,1002,1001,1063,1081,1132,1254,1206,1158,1116,1134,1052,1186,1198,1152,1161,1234,1225,1277,1317,1288,1388,1321,1381,1392,1369,1245,1259,1257,1308,1292,1313,1338,1342,1233,1206,1103,1133,1079,1182,1212,1315,1298,1230,1226,1268,1244,1174,1210,1114,1053,1014,1107,1060,1095,1094,1144,1134,1172,1243,1259,1164,1115,1217,1127,1147,1170,1119,960,902,782,851,956,1059,1180,1210,1107,1023,876,660,575,664,704,659,649,654,611,463,450,441,499,412,406,431,423,320,321,359,328,318,340,352,275,278,302,359,364,367,378,,,,,,,,,,,,,,,,,,,,,,,,,,,,,,,,,,,,,,,,,,,,,,,,,,,,,,,,,,,,,,,,,,,,,,,,,,,,,,,,,,,,,,,,,,,,,,,,,,,,,,,,,,,,,,,,,,,,,,,,,,,
waveOut,1,2,308,304,348,350,391,387,455,514,636,618,707,683,675,613,648,631,679,714,765,785,785,794,808,787,856,909,1066,1047,1131,1116,1144,1068,1172,1141,1199,1227,1261,1263,1310,1309,1280,1242,1313,1297,1268,1258,1279,1224,1239,1222,1246,1343,1275,1217,1275,1389,1287,1350,1311,1249,1037,994,918,932,1036,1191,1213,1215,1196,1114,1016,1106,1056,1045,952,891,788,781,816,833,794,737,724,660,745,768,708,641,645,583,547,529,534,510,401,339,240,224,244,263,293,326,347,321,323,307,305,279,288,282,294,282,278,288,335,296,279,291,282,200,236,245,254,238,,,,,,,,,,,,,,,,,,,,,,,,,,,,,,,,,,,,,,,,,,,,,,,,,,,,,,,,,,,,,,,,,,,,,,,,,,,,,,,,,,,,,,,,,,,,,,,,,,,,,,,,,,,,,,,,,,,,,,
waveOut,1,3,182,317,322,320,354,426,426,430,469,484,459,418,428,490,509,503,610,610,594,614,678,590,680,663,701,789,879,993,1109,1129,1156,1115,1112,1086,1036,1022,1157,1114,1132,1235,1239,1183,1188,1235,1186,1127,1084,1080,1004,1020,1048,1118,1142,1163,1238,1236,1271,1234,1244,1240,1262,1175,1136,1096,1042,1094,1121,1212,1249,1261,1196,1191,1170,1170,1092,1137,1168,1173,1247,1357,1318,1298,1233,1077,982,983,1029,1001,989,931,901,864,851,866,919,875,755,733,724,574,542,494,481,454,482,501,492,487,456,435,426,413,419,358,354,325,327,379,380,480,500,486,,,,,,,,,,,,,,,,,,,,,,,,,,,,,,,,,,,,,,,,,,,,,,,,,,,,,,,,,,,,,,,,,,,,,,,,,,,,,,,,,,,,,,,,,,,,,,,,,,,,,,,,,,,,,,,,,,,,,,,,
waveOut,1,4,206,144,112,153,180,192,248,259,309,332,381,409,439,474,509,563,571,649,613,687,644,670,691,729,663,673,706,646,656,634,657,716,700,646,653,711,738,832,852,947,912,906,870,962,899,1063,1089,1115,1113,1277,1257,1174,1227,1255,1134,1055,1125,1096,1000,1028,988,988,980,1061,1041,1088,1068,1080,1142,1146,1185,1231,1233,1209,1181,1132,1116,1133,1156,1179,1193,1127,1095,1034,1105,1191,1294,1366,1358,1347,1256,1193,1209,1248,1159,1158,1189,1134,1069,1190,1205,1198,1118,1188,1132,1071,951,934,781,656,674,661,608,623,731,721,805,786,757,634,573,443,489,472,438,423,411,389,370,353,350,331,251,199,222,216,226,226,208,241,257,251,253,262,197,227,233,239,250,258,252,257,,,,,,,,,,,,,,,,,,,,,,,,,,,,,,,,,,,,,,,,,,,,,,,,,,,,,,,,,,,,,,,,,,,,,,,,,,,,,,,,,,,,,,,,,,
waveOut,1,5,189,213,215,278,339,384,508,651,672,705,720,668,648,727,783,908,945,981,985,1026,1000,1112,1093,1207,1198,1196,1144,1188,1093,1068,1061,1075,1100,1126,1173,1208,1249,1182,1156,1080,1051,1021,1057,1081,1107,1170,1097,1119,1174,1236,1203,1222,1195,1113,1126,1128,1131,1179,1190,1084,1071,1102,1132,1173,1250,1227,1291,1233,1155,1188,1239,1136,1130,1121,1073,994,992,1043,1053,1018,986,943,848,805,827,901,899,833,834,717,604,630,604,568,566,584,523,504,561,572,525,589,587,503,548,611,563,560,552,556,479,422,416,422,314,261,255,371,371,338,343,341,211,201,248,297,315,329,,,,,,,,,,,,,,,,,,,,,,,,,,,,,,,,,,,,,,,,,,,,,,,,,,,,,,,,,,,,,,,,,,,,,,,,,,,,,,,,,,,,,,,,,,,,,,,,,,,,,,,,,,,,,,,,,,
waveOut,1,6,127,117,88,123,150,179,206,276,365,380,384,382,347,256,299,308,321,323,338,285,382,571,607,603,621,602,458,504,597,618,626,696,706,684,669,694,716,700,697,766,820,819,833,850,885,934,964,986,999,942,912,900,948,983,1029,987,1042,968,1020,985,1000,961,1047,1008,1080,1121,1151,1119,1119,1161,1136,1092,1078,1177,1139,1256,1242,1322,1234,1217,1154,1148,1120,1111,1041,943,1027,1064,1113,1199,1193,1166,1078,984,935,933,934,1012,1000,968,999,873,784,756,784,701,726,662,637,523,561,582,551,570,560,571,552,516,480,487,420,341,313,316,287,262,275,265,273,272,204,207,204,235,230,229,194,,,,,,,,,,,,,,,,,,,,,,,,,,,,,,,,,,,,,,,,,,,,,,,,,,,,,,,,,,,,,,,,,,,,,,,,,,,,,,,,,,,,,,,,,,,,,,,,,,,,,,,,,
waveOut,1,7,193,151,178,187,248,264,262,249,255,242,225,249,261,285,295,330,431,446,441,440,484,408,460,529,543,511,538,526,478,552,589,679,698,763,730,803,810,865,875,922,1008,1026,1101,1122,1143,1066,1053,996,936,890,976,961,1027,1064,1144,1022,1069,956,1027,1018,1136,1167,1206,1196,1248,1202,1137,1159,1121,1010,1030,1042,1042,1098,1153,1078,1061,1027,997,940,990,1007,1051,1025,1082,1115,1130,1083,1141,1093,1082,1115,1197,1154,1197,1202,1179,1147,1180,1103,1087,996,913,800,801,741,792,781,828,802,748,676,635,619,605,624,617,609,549,507,441,426,402,328,313,317,301,299,362,470,486,493,460,396,276,261,245,,,,,,,,,,,,,,,,,,,,,,,,,,,,,,,,,,,,,,,,,,,,,,,,,,,,,,,,,,,,,,,,,,,,,,,,,,,,,,,,,,,,,,,,,,,,,,,,,,,,,,,,,
waveOut,1,8,323,358,354,396,456,488,510,525,516,499,536,535,604,618,658,637,659,728,794,809,931,1019,1098,1167,1287,1306,1352,1270,1234,1097,996,940,1022,1007,1077,1094,1173,1201,1273,1283,1338,1247,1252,1209,1204,1167,1110,1062,1092,1077,1126,1201,1118,1097,1110,1099,1098,1201,1128,1070,1081,1091,1060,1125,1253,1185,1164,1238,1289,1216,1180,1175,1053,999,960,1075,1036,1016,917,862,726,724,675,678,744,738,704,716,680,560,577,568,539,587,623,680,630,655,620,609,463,456,364,398,391,433,441,461,465,460,406,399,395,371,351,412,425,410,442,433,383,361,,,,,,,,,,,,,,,,,,,,,,,,,,,,,,,,,,,,,,,,,,,,,,,,,,,,,,,,,,,,,,,,,,,,,,,,,,,,,,,,,,,,,,,,,,,,,,,,,,,,,,,,,,,,,,,,,,,,,,,,
waveOut,1,9,212,218,217,164,141,115,131,169,164,165,179,169,141,162,180,167,165,163,144,118,158,236,273,409,484,628,645,654,679,667,578,635,634,650,660,688,675,761,709,698,673,621,618,742,804,861,887,890,890,870,888,948,996,1049,1032,999,967,922,823,808,791,816,766,771,866,857,840,912,939,1027,1069,1063,1037,983,895,861,962,1006,1035,1100,1125,1135,1060,1108,1113,1162,1272,1270,1197,1111,1081,828,956,1028,1108,1143,1184,1094,1070,941,816,731,762,663,638,634,639,557,537,580,588,595,612,604,581,547,507,467,520,489,508,464,519,452,427,402,530,462,457,457,483,332,313,351,393,335,342,369,366,324,296,,,,,,,,,,,,,,,,,,,,,,,,,,,,,,,,,,,,,,,,,,,,,,,,,,,,,,,,,,,,,,,,,,,,,,,,,,,,,,,,,,,,,,,,,,,,,,,,,,,,,
waveIn,1,0,417,437,454,388,288,309,357,319,292,297,267,174,188,190,218,251,265,308,315,311,308,293,259,265,311,340,345,357,360,305,265,266,394,455,474,465,499,400,337,331,354,354,404,425,418,414,397,345,313,314,351,368,403,399,391,358,312,250,236,224,186,174,149,157,156,229,286,294,301,371,348,335,342,358,326,355,456,528,562,608,624,622,594,571,690,727,672,694,740,598,531,513,458,380,363,363,422,433,423,416,432,398,522,512,546,543,573,459,460,474,502,480,493,,,,,,,,,,,,,,,,,,,,,,,,,,,,,,,,,,,,,,,,,,,,,,,,,,,,,,,,,,,,,,,,,,,,,,,,,,,,,,,,,,,,,,,,,,,,,,,,,,,,,,,,,,,,,,,,,,,,,,,,,,,,,,,,,
waveIn,1,1,343,345,357,356,321,362,359,356,352,296,228,210,208,210,213,256,276,370,367,373,361,360,267,326,344,342,339,364,309,298,329,347,339,343,325,343,341,327,349,357,302,291,320,331,336,364,359,344,318,327,312,304,336,339,325,326,318,268,270,265,245,267,286,284,300,298,295,293,315,309,309,322,308,265,251,243,214,214,271,308,304,336,375,343,310,389,385,347,388,488,463,552,559,605,557,570,526,548,533,577,556,548,533,500,472,461,408,446,411,380,372,395,396,409,372,423,447,,,,,,,,,,,,,,,,,,,,,,,,,,,,,,,,,,,,,,,,,,,,,,,,,,,,,,,,,,,,,,,,,,,,,,,,,,,,,,,,,,,,,,,,,,,,,,,,,,,,,,,,,,,,,,,,,,,,,,,,,,,,,
waveIn,1,2,369,350,300,368,318,328,420,438,381,410,402,316,367,449,415,414,462,472,396,377,459,427,362,390,424,339,349,408,428,424,448,473,552,598,594,647,617,557,492,489,409,415,344,315,333,353,351,365,433,429,456,464,440,373,381,334,350,356,374,344,323,283,278,245,259,283,283,298,316,299,268,353,411,428,444,473,445,473,455,447,424,408,322,485,474,462,436,410,172,284,295,316,389,402,380,403,426,408,409,440,479,451,462,491,469,420,477,525,507,519,541,513,463,488,452,450,463,481,471,521,531,500,482,481,430,494,501,,,,,,,,,,,,,,,,,,,,,,,,,,,,,,,,,,,,,,,,,,,,,,,,,,,,,,,,,,,,,,,,,,,,,,,,,,,,,,,,,,,,,,,,,,,,,,,,,,,,,,,,,,,,,,,,,,,
waveIn,1,3,314,431,500,504,499,493,434,383,376,362,370,315,202,181,193,227,242,324,340,346,339,345,280,251,243,228,255,249,256,251,284,245,259,272,271,228,230,254,293,340,367,363,337,318,289,251,263,287,293,283,287,276,274,250,285,280,274,280,318,273,282,282,319,282,295,288,311,249,239,235,231,199,188,169,165,169,182,226,278,318,326,438,416,409,445,469,388,447,446,408,462,462,426,424,407,386,421,468,535,625,612,612,594,550,464,429,468,551,554,569,594,559,463,433,407,386,374,395,411,433,450,427,514,581,551,537,568,,,,,,,,,,,,,,,,,,,,,,,,,,,,,,,,,,,,,,,,,,,,,,,,,,,,,,,,,,,,,,,,,,,,,,,,,,,,,,,,,,,,,,,,,,,,,,,,,,,,,,,,,,,,,,,,,,,
waveIn,1,4,405,415,414,454,359,377,366,359,330,313,280,278,293,383,401,399,403,401,300,272,303,317,304,299,344,374,360,354,350,389,348,419,437,428,328,347,273,240,262,275,277,296,311,298,290,267,247,228,236,239,224,224,221,235,235,277,296,238,272,252,248,323,336,301,315,328,227,246,267,264,253,274,255,242,238,239,221,197,201,195,234,252,261,259,257,230,234,270,303,307,324,312,276,229,242,213,208,216,218,190,173,156,166,224,281,287,341,348,343,345,356,426,486,651,711,790,761,798,741,721,726,815,778,751,704,683,561,529,517,558,498,542,636,593,583,626,571,456,541,527,426,496,476,422,486,515,458,500,454,418,,,,,,,,,,,,,,,,,,,,,,,,,,,,,,,,,,,,,,,,,,,,,,,,,,,,,,,,,,,,,,,,,,,,,,,,,,,,,,,,,,,,,,,,,,,,
waveIn,1,5,392,415,389,396,416,450,473,423,448,425,402,447,438,419,447,422,338,425,436,405,427,455,369,391,412,375,330,346,297,375,405,420,439,453,380,345,313,270,239,232,231,246,260,264,285,291,259,246,249,209,215,259,273,317,324,324,294,291,232,251,238,252,235,230,233,228,218,232,245,218,259,262,266,250,240,373,397,427,467,473,391,476,455,447,451,428,327,325,294,275,242,191,209,224,307,370,413,510,537,535,542,599,524,517,553,532,473,537,541,485,512,535,518,546,576,581,534,539,484,474,465,480,421,434,480,530,510,501,498,446,397,425,437,450,433,392,393,388,,,,,,,,,,,,,,,,,,,,,,,,,,,,,,,,,,,,,,,,,,,,,,,,,,,,,,,,,,,,,,,,,,,,,,,,,,,,,,,,,,,,,,,,,,,,,,,,,,,,,,,,
waveIn,1,6,421,369,378,398,377,383,442,433,391,480,454,400,431,454,380,369,378,395,389,360,365,361,364,330,344,431,424,365,376,371,252,301,315,302,298,311,259,332,331,322,304,303,216,254,292,306,294,289,247,209,204,193,212,225,235,255,264,240,222,218,288,308,334,355,356,287,270,266,251,254,274,305,315,347,370,342,311,278,251,231,261,290,318,308,310,287,259,230,229,188,188,173,169,166,247,304,362,387,468,460,439,428,407,333,316,360,340,436,441,446,516,567,573,608,605,534,502,465,473,498,514,494,498,560,611,612,607,626,581,588,577,599,634,601,526,536,585,492,532,524,533,449,511,447,468,453,444,459,438,439,427,442,,,,,,,,,,,,,,,,,,,,,,,,,,,,,,,,,,,,,,,,,,,,,,,,,,,,,,,,,,,,,,,,,,,,,,,,,,,,,,,,,,,,,,,,,,
waveIn,1,7,304,353,358,384,367,354,407,362,343,346,348,300,289,313,331,337,332,372,353,346,333,293,317,383,370,374,377,359,293,317,349,326,352,365,357,354,374,381,392,415,384,368,284,250,254,318,324,335,321,291,230,243,240,276,260,262,284,281,249,253,256,228,266,272,280,311,395,444,448,486,467,398,343,337,299,311,308,275,276,301,311,332,354,388,348,326,292,252,185,233,233,236,239,242,210,262,256,261,246,217,127,109,127,163,184,233,252,277,313,317,353,486,521,550,563,540,496,503,477,534,664,674,654,654,620,493,422,416,388,357,352,342,340,376,474,460,468,494,471,366,436,513,473,508,510,506,436,426,424,,,,,,,,,,,,,,,,,,,,,,,,,,,,,,,,,,,,,,,,,,,,,,,,,,,,,,,,,,,,,,,,,,,,,,,,,,,,,,,,,,,,,,,,,,,,,
waveIn,1,8,235,221,301,295,285,309,330,317,331,334,313,349,297,300,297,283,207,200,175,220,212,215,202,191,150,231,238,237,233,225,144,129,130,132,138,156,167,179,184,198,178,161,147,151,147,172,202,206,204,191,178,155,157,148,180,183,210,218,227,204,208,178,172,160,157,160,182,177,191,236,240,224,236,232,189,167,164,152,191,201,205,200,191,140,113,97,88,87,108,119,187,318,404,458,478,475,451,397,420,422,437,474,464,553,584,627,621,632,511,501,471,454,455,488,541,538,558,583,544,477,494,449,415,494,504,479,471,490,458,475,454,448,409,441,448,443,529,539,495,497,489,425,438,418,475,514,518,565,586,,,,,,,,,,,,,,,,,,,,,,,,,,,,,,,,,,,,,,,,,,,,,,,,,,,,,,,,,,,,,,,,,,,,,,,,,,,,,,,,,,,,,,,,,,,,,
waveIn,1,9,302,310,348,386,414,393,455,530,531,506,515,475,334,279,267,274,341,384,391,394,438,407,443,437,442,420,416,326,328,336,365,445,504,529,528,474,389,326,335,396,446,419,416,407,346,266,257,249,185,221,229,260,249,251,195,191,136,134,121,130,113,114,114,128,142,142,154,172,166,162,169,172,154,200,211,214,207,206,159,172,190,195,205,218,200,201,195,199,193,185,214,225,211,209,214,163,174,186,188,189,202,185,181,171,166,148,135,129,134,121,202,213,247,291,290,241,235,199,194,337,430,443,470,462,387,305,341,321,319,372,406,381,404,499,481,460,483,467,375,358,373,335,473,507,496,493,496,371,448,481,485,528,522,420,433,396,331,319,345,287,475,495,549,558,555,464,,,,,,,,,,,,,,,,,,,,,,,,,,,,,,,,,,,,,,,,,,,,,,,,,,,,,,,,,,,,,,,,,,,,,,,,,,,,
doubleTap,1,0,184,177,174,178,202,293,311,362,395,391,381,393,483,480,479,450,434,317,465,527,544,614,647,714,866,907,918,909,828,635,585,513,589,649,812,909,951,947,877,808,725,655,619,616,507,462,559,496,526,553,524,448,441,386,337,347,366,383,449,438,451,450,472,413,457,450,404,385,463,451,482,493,507,493,458,474,,,,,,,,,,,,,,,,,,,,,,,,,,,,,,,,,,,,,,,,,,,,,,,,,,,,,,,,,,,,,,,,,,,,,,,,,,,,,,,,,,,,,,,,,,,,,,,,,,,,,,,,,,,,,,,,,,,,,,,,,,,,,,,,,,,,,,,,,,,,,,,,,,,,,,,,,,,,,,,,,,,,,,
doubleTap,1,1,330,329,341,259,249,273,280,250,235,237,212,201,195,203,352,568,790,963,1059,1058,963,807,619,441,411,531,699,883,1008,1072,1145,1090,956,832,724,514,401,372,416,437,476,584,577,539,499,430,270,371,362,416,459,468,398,436,446,434,533,,,,,,,,,,,,,,,,,,,,,,,,,,,,,,,,,,,,,,,,,,,,,,,,,,,,,,,,,,,,,,,,,,,,,,,,,,,,,,,,,,,,,,,,,,,,,,,,,,,,,,,,,,,,,,,,,,,,,,,,,,,,,,,,,,,,,,,,,,,,,,,,,,,,,,,,,,,,,,,,,,,,,,,,,,,,,,,,,,,,,,,,,
doubleTap,1,2,265,315,335,336,329,308,221,203,225,233,218,266,358,600,749,889,1108,1109,1008,917,815,480,518,529,700,763,950,1077,1076,1048,1027,876,649,654,527,509,496,487,476,481,423,435,461,489,483,458,435,408,335,312,490,490,497,492,507,356,330,325,344,347,334,304,341,,,,,,,,,,,,,,,,,,,,,,,,,,,,,,,,,,,,,,,,,,,,,,,,,,,,,,,,,,,,,,,,,,,,,,,,,,,,,,,,,,,,,,,,,,,,,,,,,,,,,,,,,,,,,,,,,,,,,,,,,,,,,,,,,,,,,,,,,,,,,,,,,,,,,,,,,,,,,,,,,,,,,,,,,,,,,,,,,,,
doubleTap,1,3,306,310,277,270,269,293,352,361,405,417,392,338,322,355,391,395,399,371,292,259,238,245,364,438,630,860,915,932,916,792,564,480,458,484,705,818,1118,1111,1182,1101,1027,722,713,555,522,503,432,408,393,335,312,375,353,425,424,443,395,398,317,384,341,355,376,432,402,436,424,432,390,376,374,403,358,353,324,376,346,354,382,454,391,398,400,434,366,420,426,424,364,358,,,,,,,,,,,,,,,,,,,,,,,,,,,,,,,,,,,,,,,,,,,,,,,,,,,,,,,,,,,,,,,,,,,,,,,,,,,,,,,,,,,,,,,,,,,,,,,,,,,,,,,,,,,,,,,,,,,,,,,,,,,,,,,,,,,,,,,,,,,,,,,,,,,,,,,,
doubleTap,1,4,299,312,318,319,284,227,220,226,221,226,243,330,467,566,786,816,791,720,680,424,399,451,540,637,795,840,883,924,877,747,720,687,612,552,559,541,477,398,411,379,386,389,398,376,362,339,323,365,361,386,474,463,473,471,455,310,440,387,422,426,503,406,401,376,384,423,429,459,439,590,531,519,501,515,458,419,416,457,,,,,,,,,,,,,,,,,,,,,,,,,,,,,,,,,,,,,,,,,,,,,,,,,,,,,,,,,,,,,,,,,,,,,,,,,,,,,,,,,,,,,,,,,,,,,,,,,,,,,,,,,,,,,,,,,,,,,,,,,,,,,,,,,,,,,,,,,,,,,,,,,,,,,,,,,,,,,,,,,,,,
doubleTap,1,5,261,296,278,277,272,285,254,251,249,295,358,377,379,405,374,297,266,250,189,169,214,273,443,672,821,870,907,845,681,522,472,548,574,646,814,910,926,1001,1018,932,828,710,576,530,461,474,515,533,484,501,480,421,412,395,326,302,291,279,286,326,392,390,385,456,478,442,442,463,404,381,352,392,359,363,316,312,372,417,387,400,488,445,421,419,423,,,,,,,,,,,,,,,,,,,,,,,,,,,,,,,,,,,,,,,,,,,,,,,,,,,,,,,,,,,,,,,,,,,,,,,,,,,,,,,,,,,,,,,,,,,,,,,,,,,,,,,,,,,,,,,,,,,,,,,,,,,,,,,,,,,,,,,,,,,,,,,,,,,,,,,,,,,,,
doubleTap,1,6,243,258,189,216,226,221,204,190,233,231,228,226,261,197,189,182,192,135,136,200,227,217,213,310,398,597,850,979,971,938,830,602,404,393,425,691,767,931,1024,1099,992,978,831,725,587,531,521,497,488,470,481,359,351,332,366,322,320,343,321,306,295,366,321,336,347,355,279,301,275,283,274,334,347,397,364,373,370,356,337,329,412,391,382,396,395,,,,,,,,,,,,,,,,,,,,,,,,,,,,,,,,,,,,,,,,,,,,,,,,,,,,,,,,,,,,,,,,,,,,,,,,,,,,,,,,,,,,,,,,,,,,,,,,,,,,,,,,,,,,,,,,,,,,,,,,,,,,,,,,,,,,,,,,,,,,,,,,,,,,,,,,,,,,,
doubleTap,1,7,226,223,174,157,164,117,164,154,161,163,178,254,464,728,855,871,854,777,562,384,346,452,467,619,840,901,863,890,813,564,537,555,490,440,453,385,331,434,431,463,458,539,479,474,456,446,384,360,366,330,401,352,397,434,465,402,399,383,343,292,297,389,366,380,384,396,393,374,379,470,449,458,470,479,403,416,337,329,279,250,249,265,,,,,,,,,,,,,,,,,,,,,,,,,,,,,,,,,,,,,,,,,,,,,,,,,,,,,,,,,,,,,,,,,,,,,,,,,,,,,,,,,,,,,,,,,,,,,,,,,,,,,,,,,,,,,,,,,,,,,,,,,,,,,,,,,,,,,,,,,,,,,,,,,,,,,,,,,,,,,,,,
doubleTap,1,8,220,220,216,218,190,197,204,203,159,146,279,414,592,710,745,779,770,657,541,506,400,283,327,504,615,727,742,778,687,671,567,608,530,595,509,503,428,429,379,352,379,406,486,419,452,406,405,360,362,348,386,375,368,397,397,467,468,449,427,423,330,313,299,350,347,358,362,370,343,363,315,320,306,,,,,,,,,,,,,,,,,,,,,,,,,,,,,,,,,,,,,,,,,,,,,,,,,,,,,,,,,,,,,,,,,,,,,,,,,,,,,,,,,,,,,,,,,,,,,,,,,,,,,,,,,,,,,,,,,,,,,,,,,,,,,,,,,,,,,,,,,,,,,,,,,,,,,,,,,,,,,,,,,,,,,,,,,
doubleTap,1,9,177,198,199,217,219,220,229,236,237,247,246,231,219,165,179,183,188,190,189,191,405,570,625,653,672,583,453,410,435,420,595,744,830,824,821,705,655,522,501,507,537,360,376,368,388,364,367,346,344,306,266,263,260,229,295,323,346,386,396,335,371,358,363,359,350,337,347,358,369,368,312,303,285,257,269,275,287,231,238,234,318,295,294,301,,,,,,,,,,,,,,,,,,,,,,,,,,,,,,,,,,,,,,,,,,,,,,,,,,,,,,,,,,,,,,,,,,,,,,,,,,,,,,,,,,,,,,,,,,,,,,,,,,,,,,,,,,,,,,,,,,,,,,,,,,,,,,,,,,,,,,,,,,,,,,,,,,,,,,,,,,,,,,
fist,2,0,90,84,88,90,114,94,96,97,103,103,122,124,119,123,109,89,99,110,103,97,100,107,99,94,93,108,96,100,123,131,125,120,140,128,121,126,124,95,83,106,101,103,105,119,115,108,118,118,110,92,92,76,82,82,82,81,82,78,73,76,83,89,89,93,108,104,97,124,121,111,122,133,139,173,177,173,195,192,187,207,240,236,299,371,444,520,552,551,527,491,425,398,437,430,403,398,411,347,417,414,402,407,413,362,394,442,456,492,499,493,455,423,420,396,387,392,434,402,407,421,463,513,511,494,540,534,444,429,505,434,450,448,437,329,313,259,246,236,236,238,200,183,178,178,222,175,182,180,183,154,147,132,133,157,168,205,238,262,302,303,317,343,391,453,456,436,434,423,360,349,430,414,404,395,411,389,380,375,343,374,318,375,349,349,293,300,264,278,279,299,276,245,265,261,232,,,,,,,,,,,,,,,,,,,,,,,,,,,,,,,,,,,,,,,,,,,,,,,
fist,2,1,215,181,174,175,214,197,201,199,216,194,213,216,213,195,183,220,235,232,223,248,190,161,162,178,169,176,192,200,186,234,306,327,345,351,336,389,422,450,472,505,482,463,429,442,463,401,383,391,353,350,411,464,610,670,669,675,708,679,647,642,701,672,652,672,716,665,819,771,769,819,845,825,823,858,777,720,539,601,611,601,599,588,532,408,350,323,310,272,240,235,221,196,185,173,144,139,140,100,90,106,109,115,124,166,157,175,179,188,175,219,236,258,263,283,259,232,246,274,315,343,364,359,333,289,298,308,305,302,306,260,218,189,204,202,226,245,265,260,239,208,213,199,205,214,224,255,248,258,,,,,,,,,,,,,,,,,,,,,,,,,,,,,,,,,,,,,,,,,,,,,,,,,,,,,,,,,,,,,,,,,,,,,,,,,,,,,,,,,,,,,,,,,,,,,,
fist,2,2,178,154,166,193,177,167,171,160,113,103,96,272,281,289,292,296,165,160,144,136,128,111,142,145,144,158,194,185,186,223,227,246,271,284,317,357,394,426,433,406,399,400,400,400,403,424,420,381,438,450,448,456,551,532,564,570,586,493,538,529,511,472,577,619,611,675,684,635,576,627,613,674,660,624,563,521,470,433,498,551,549,479,496,510,442,411,425,403,267,246,204,173,169,159,153,152,139,136,160,208,320,345,354,355,331,238,199,183,159,151,134,146,164,185,224,271,268,296,371,424,395,429,438,458,391,410,410,405,324,380,377,341,327,307,360,345,342,343,344,282,320,333,315,336,266,217,276,276,264,302,301,241,,,,,,,,,,,,,,,,,,,,,,,,,,,,,,,,,,,,,,,,,,,,,,,,,,,,,,,,,,,,,,,,,,,,,,,,,,,,,,,,,,,,,,,,,,
fist,2,3,181,199,149,152,154,139,141,146,163,197,209,197,195,193,160,151,144,150,162,152,159,161,201,196,201,198,209,255,261,390,399,458,458,465,413,438,391,378,383,361,386,397,383,384,418,377,422,499,490,464,525,498,438,467,534,487,466,477,520,547,552,624,633,674,602,623,583,660,633,641,647,687,627,633,622,597,553,558,611,653,679,673,658,590,619,670,764,761,732,690,640,550,676,660,674,674,646,470,448,384,311,344,350,360,337,346,293,372,364,364,335,321,200,202,190,168,122,111,131,179,189,183,234,230,367,400,431,421,460,370,346,323,319,261,280,328,328,340,347,517,509,501,492,490,296,268,336,340,330,293,,,,,,,,,,,,,,,,,,,,,,,,,,,,,,,,,,,,,,,,,,,,,,,,,,,,,,,,,,,,,,,,,,,,,,,,,,,,,,,,,,,,,,,,,,,,
fist,2,4,185,149,144,163,162,162,163,171,141,110,159,154,146,161,206,176,203,204,192,146,188,168,176,181,179,124,106,81,97,147,168,171,202,222,207,209,216,218,248,319,339,387,400,382,336,360,326,426,442,459,449,449,408,396,442,440,434,398,380,361,353,422,418,548,526,523,490,499,410,422,429,548,585,670,656,703,642,639,563,592,574,572,596,634,642,642,641,638,610,585,614,672,781,773,833,873,875,798,790,881,937,884,850,853,707,506,474,403,356,289,259,240,231,189,203,201,261,297,333,332,323,302,311,343,338,361,358,363,303,411,481,497,473,475,471,482,470,591,676,723,664,666,583,482,306,337,321,334,321,332,304,313,299,307,277,275,281,266,260,273,285,280,249,252,,,,,,,,,,,,,,,,,,,,,,,,,,,,,,,,,,,,,,,,,,,,,,,,,,,,,,,,,,,,,,,,,,,,,,,,,,,,,,
fist,2,5,147,152,166,166,134,149,156,146,144,158,116,110,120,120,96,140,134,125,123,125,70,91,87,99,96,95,72,86,105,109,119,129,182,180,188,203,232,241,235,244,265,274,291,326,337,339,334,294,297,360,430,482,520,555,575,549,599,633,604,562,562,339,334,623,603,548,701,778,777,775,782,694,667,615,622,651,751,697,741,726,713,687,686,634,663,682,548,600,718,643,601,623,585,408,398,379,310,260,227,254,239,227,338,338,328,353,370,291,317,369,483,610,746,760,750,682,620,474,444,459,515,456,454,440,412,322,375,338,375,389,439,381,374,384,397,367,462,452,417,389,376,272,274,284,264,268,,,,,,,,,,,,,,,,,,,,,,,,,,,,,,,,,,,,,,,,,,,,,,,,,,,,,,,,,,,,,,,,,,,,,,,,,,,,,,,,,,,,,,,,,,,,,,,,
fist,2,6,154,169,183,162,201,180,189,179,183,177,179,178,201,199,162,156,136,139,132,138,140,136,114,114,120,149,210,212,225,240,229,190,209,220,221,233,253,238,230,286,303,296,321,333,289,280,391,425,431,458,511,473,517,563,577,599,587,570,536,537,503,496,484,462,430,430,443,411,550,557,532,514,493,338,312,270,237,211,180,128,147,131,143,135,186,174,183,220,259,260,304,316,307,323,328,308,312,379,391,463,478,491,514,484,421,424,449,359,451,446,453,477,484,416,445,431,364,363,332,338,334,343,373,,,,,,,,,,,,,,,,,,,,,,,,,,,,,,,,,,,,,,,,,,,,,,,,,,,,,,,,,,,,,,,,,,,,,,,,,,,,,,,,,,,,,,,,,,,,,,,,,,,,,,,,,,,,,,,,,,,,,,,
fist,2,7,184,187,213,228,230,298,306,287,312,312,216,224,227,178,172,204,188,191,175,168,128,158,169,260,270,295,275,262,202,198,165,163,177,205,230,234,352,364,394,437,459,413,410,368,397,403,372,400,397,358,358,375,395,409,457,444,442,416,424,378,430,437,425,487,496,464,525,530,517,495,491,435,512,497,536,535,634,618,618,612,657,688,699,697,685,662,584,566,526,513,477,404,328,357,312,318,298,279,227,213,235,244,264,261,263,205,156,146,182,176,177,192,227,268,289,294,343,347,309,341,438,399,371,453,544,568,588,613,582,490,436,521,505,473,501,471,347,358,373,318,284,328,331,,,,,,,,,,,,,,,,,,,,,,,,,,,,,,,,,,,,,,,,,,,,,,,,,,,,,,,,,,,,,,,,,,,,,,,,,,,,,,,,,,,,,,,,,,,,,,,,,,,
fist,2,8,176,184,152,215,244,253,251,256,202,175,182,165,149,147,136,87,90,162,161,162,166,160,148,155,156,152,153,101,117,131,140,156,182,194,227,292,288,314,385,386,386,495,498,496,493,508,444,462,437,430,387,366,348,318,330,330,327,295,325,374,512,537,543,577,568,497,463,503,444,491,467,527,596,693,719,730,711,682,591,518,511,507,430,453,448,400,404,392,365,319,329,256,235,181,216,297,338,390,445,534,515,610,638,657,605,602,565,576,564,544,554,520,457,432,481,455,407,382,351,322,377,393,394,441,415,,,,,,,,,,,,,,,,,,,,,,,,,,,,,,,,,,,,,,,,,,,,,,,,,,,,,,,,,,,,,,,,,,,,,,,,,,,,,,,,,,,,,,,,,,,,,,,,,,,,,,,,,,,,,,,,,,,,,
fist,2,9,276,291,290,304,301,247,187,230,213,219,195,211,151,168,202,201,189,185,195,178,175,207,207,225,206,213,207,214,201,199,198,176,168,144,169,177,170,175,168,189,211,245,249,244,223,200,165,162,157,145,131,135,254,275,302,342,383,346,354,337,319,355,339,334,393,400,339,387,405,426,417,445,409,423,372,415,424,460,581,581,595,586,622,577,639,682,678,665,605,556,497,521,473,464,457,432,419,463,494,537,548,522,472,436,357,316,309,289,255,206,151,123,128,118,116,126,193,224,307,363,384,386,380,355,330,322,328,331,358,395,392,461,506,485,445,449,390,317,300,308,371,322,323,310,298,239,242,243,,,,,,,,,,,,,,,,,,,,,,,,,,,,,,,,,,,,,,,,,,,,,,,,,,,,,,,,,,,,,,,,,,,,,,,,,,,,,,,,,,,,,,,,,,,,,,
fingersSpread,2,0,57,60,63,55,67,70,67,78,76,70,63,64,49,80,77,80,88,89,66,63,60,121,271,446,615,724,784,869,897,869,835,872,827,793,763,762,678,670,665,748,819,966,975,1000,932,966,932,968,979,1127,1137,1108,1072,1102,1012,963,947,944,921,942,905,886,877,887,857,929,900,942,955,940,856,831,740,582,503,395,409,388,534,660,680,667,669,526,264,234,219,192,189,177,158,151,148,142,134,88,130,162,171,172,179,207,190,189,195,189,,,,,,,,,,,,,,,,,,,,,,,,,,,,,,,,,,,,,,,,,,,,,,,,,,,,,,,,,,,,,,,,,,,,,,,,,,,,,,,,,,,,,,,,,,,,,,,,,,,,,,,,,,,,,,,,,,,,,,,,,,,,,,,,,,,,,,,,
fingersSpread,2,1,74,86,91,93,88,83,68,63,61,55,75,78,97,100,134,141,149,166,174,176,264,324,320,340,358,384,382,479,484,542,577,608,600,724,740,789,868,916,862,835,819,783,730,842,868,869,843,888,833,873,884,1023,1064,1122,1163,1144,1073,1019,933,851,859,897,870,877,844,893,788,841,862,1019,1088,1106,1107,1124,1022,844,821,718,564,534,518,426,412,456,348,397,387,393,322,303,184,167,148,117,101,91,92,93,82,71,72,67,91,89,104,149,176,165,165,159,118,87,86,100,97,104,92,88,77,86,75,,,,,,,,,,,,,,,,,,,,,,,,,,,,,,,,,,,,,,,,,,,,,,,,,,,,,,,,,,,,,,,,,,,,,,,,,,,,,,,,,,,,,,,,,,,,,,,,,,,,,,,,,,,,,,,,,,,,,,,,,
fingersSpread,2,2,71,73,68,73,71,64,76,73,67,70,91,73,76,76,145,135,138,137,140,77,95,153,270,413,458,529,548,519,444,438,373,413,442,461,488,575,648,679,781,914,992,1063,1124,1131,1134,1157,1113,1064,1038,912,943,1038,1232,1255,1306,1248,1135,1017,1067,1112,1094,1138,1069,1095,1051,1007,959,936,794,767,771,800,839,913,838,782,704,634,445,453,448,397,302,251,235,220,210,197,143,96,92,78,64,56,52,45,55,57,56,57,69,69,68,66,65,51,44,60,67,66,67,65,56,49,,,,,,,,,,,,,,,,,,,,,,,,,,,,,,,,,,,,,,,,,,,,,,,,,,,,,,,,,,,,,,,,,,,,,,,,,,,,,,,,,,,,,,,,,,,,,,,,,,,,,,,,,,,,,,,,,,,,,,,,,,,,,,,,
fingersSpread,2,3,60,58,40,50,48,49,59,70,65,67,81,86,112,141,142,168,255,310,333,364,390,386,391,435,459,469,452,442,430,429,534,713,742,790,833,822,776,802,778,782,821,838,813,941,1043,1003,1043,1090,993,907,940,895,947,999,973,998,1010,993,939,997,975,1022,964,987,937,880,762,824,793,753,772,770,652,683,660,655,581,541,410,390,281,260,245,228,195,153,84,80,58,61,69,66,62,61,59,53,52,52,48,45,41,38,40,41,42,40,40,39,,,,,,,,,,,,,,,,,,,,,,,,,,,,,,,,,,,,,,,,,,,,,,,,,,,,,,,,,,,,,,,,,,,,,,,,,,,,,,,,,,,,,,,,,,,,,,,,,,,,,,,,,,,,,,,,,,,,,,,,,,,,,,,,,,,,,,
fingersSpread,2,4,87,96,98,97,92,82,68,62,58,78,124,171,356,525,606,683,717,699,631,599,525,499,472,453,431,413,399,379,397,376,427,419,563,539,563,578,600,507,540,615,589,611,682,756,712,712,746,722,692,682,754,842,894,899,947,976,996,1003,954,960,917,873,829,977,970,988,996,1079,1021,1015,1020,965,834,769,862,925,947,1033,1042,992,1065,1065,1001,1061,1052,896,995,1018,937,916,895,727,793,804,798,811,808,668,621,560,467,381,285,240,190,169,158,156,156,161,154,156,157,153,145,155,155,150,151,97,112,120,120,122,153,152,147,179,196,194,200,209,189,171,160,142,127,124,135,151,142,138,182,194,,,,,,,,,,,,,,,,,,,,,,,,,,,,,,,,,,,,,,,,,,,,,,,,,,,,,,,,,,,,,,,,,,,,,,,,,,,,,,,,,,,,,,,,,,,,,,,,,,
fingersSpread,2,5,80,78,75,73,58,50,41,54,51,66,89,107,135,175,185,197,214,206,190,182,164,143,144,316,327,337,393,498,583,649,661,682,659,624,574,647,675,688,701,788,786,794,845,838,887,875,955,1012,1075,1061,1126,1137,1104,1033,1051,1011,975,997,1006,959,1017,1019,977,992,996,987,985,997,1099,1168,1096,1119,1084,964,924,960,929,988,1015,960,956,982,1037,1009,1047,1076,1001,867,836,751,778,753,706,741,710,570,518,512,377,351,272,246,211,200,154,111,109,102,98,70,118,115,118,122,122,71,72,60,52,61,67,69,67,68,60,65,55,57,58,,,,,,,,,,,,,,,,,,,,,,,,,,,,,,,,,,,,,,,,,,,,,,,,,,,,,,,,,,,,,,,,,,,,,,,,,,,,,,,,,,,,,,,,,,,,,,,,,,,,,,,,,,,,,,,,,
fingersSpread,2,6,66,77,74,70,85,88,89,90,92,85,84,79,94,100,99,108,108,100,110,112,105,108,195,205,261,273,311,360,425,484,545,571,615,611,573,549,624,563,572,608,649,725,759,786,895,953,900,927,1007,928,890,935,1005,938,933,957,906,858,983,1018,1021,1081,1122,1023,992,972,988,914,882,911,912,815,816,987,996,1005,1044,1068,988,950,1058,1081,1052,1020,1042,969,897,977,1020,1008,900,913,910,845,800,840,869,750,682,662,609,467,417,366,340,322,308,283,278,281,258,192,128,116,103,96,76,66,76,81,76,78,71,57,45,47,42,44,45,44,40,47,49,47,45,,,,,,,,,,,,,,,,,,,,,,,,,,,,,,,,,,,,,,,,,,,,,,,,,,,,,,,,,,,,,,,,,,,,,,,,,,,,,,,,,,,,,,,,,,,,,,,,,,,,,,,,,,,
fingersSpread,2,7,132,126,121,125,139,150,152,146,162,148,138,133,159,146,176,240,249,248,238,234,185,189,171,169,143,125,119,111,160,166,166,175,211,205,263,391,453,506,573,622,676,751,726,691,706,627,507,512,582,595,630,617,620,595,664,650,688,763,750,635,748,753,775,817,837,753,824,830,790,837,893,853,932,1005,1001,1017,1041,993,930,898,846,859,894,1006,1011,1013,1007,941,878,883,864,793,782,753,798,916,951,990,1005,946,838,944,847,801,844,856,772,854,819,769,771,771,674,682,675,647,528,502,465,439,320,270,250,236,168,142,128,103,101,80,75,65,61,58,67,66,71,,,,,,,,,,,,,,,,,,,,,,,,,,,,,,,,,,,,,,,,,,,,,,,,,,,,,,,,,,,,,,,,,,,,,,,,,,,,,,,,,,,,,,,,,,,,,,,,,,,,,,,,,
fingersSpread,2,8,40,37,42,43,39,32,41,64,64,69,71,69,60,61,57,61,69,64,63,75,78,95,109,115,111,107,85,66,82,223,538,676,710,734,726,573,473,458,427,426,394,328,381,430,469,525,597,698,764,914,1042,1046,984,959,856,767,827,914,976,1018,983,970,1064,1013,1060,1101,1127,990,1072,999,963,880,951,870,837,861,963,981,1039,1010,1039,1029,981,940,1025,1025,962,889,809,732,677,774,796,873,882,850,749,706,599,549,533,534,588,624,589,541,459,375,292,277,246,218,146,121,129,125,108,101,78,55,45,44,46,44,49,51,57,52,56,59,68,65,62,64,58,57,56,67,79,,,,,,,,,,,,,,,,,,,,,,,,,,,,,,,,,,,,,,,,,,,,,,,,,,,,,,,,,,,,,,,,,,,,,,,,,,,,,,,,,,,,,,,,,,,,,,,,,,,,,,,
fingersSpread,2,9,42,35,36,45,58,59,66,77,84,80,81,79,80,71,66,64,62,45,44,39,40,54,58,66,67,76,71,70,60,64,74,75,73,85,81,62,58,57,45,72,74,76,79,83,77,77,76,73,83,282,369,397,415,453,437,539,553,636,670,723,646,663,718,783,771,835,887,941,892,915,843,931,901,904,961,1124,1096,1057,1195,1157,1056,1043,1097,1045,1067,1097,1085,1114,1025,963,918,865,785,827,843,1014,1111,1053,1042,1079,942,969,1049,1098,1054,1025,877,830,779,831,800,825,774,713,617,655,581,528,472,409,267,222,207,169,172,162,156,143,122,88,81,103,101,119,132,129,119,140,128,108,106,110,95,97,,,,,,,,,,,,,,,,,,,,,,,,,,,,,,,,,,,,,,,,,,,,,,,,,,,,,,,,,,,,,,,,,,,,,,,,,,,,,,,,,,,,,,,,,,,,,,,,,,
waveOut,2,0,110,111,102,109,105,102,107,122,126,118,117,115,113,108,117,136,133,162,196,225,234,245,223,229,257,346,529,654,818,867,903,942,947,935,950,997,1004,1061,1155,1196,1233,1247,1235,1147,1122,1130,1130,1166,1230,1230,1191,1194,1164,1081,1067,1019,947,1020,1096,1207,1235,1325,1236,1177,1087,1076,969,929,954,936,844,792,752,578,486,476,389,378,434,361,367,361,444,477,488,494,503,448,434,418,432,427,453,396,430,404,400,325,326,288,,,,,,,,,,,,,,,,,,,,,,,,,,,,,,,,,,,,,,,,,,,,,,,,,,,,,,,,,,,,,,,,,,,,,,,,,,,,,,,,,,,,,,,,,,,,,,,,,,,,,,,,,,,,,,,,,,,,,,,,,,,,,,,,,,,,,,,,,,,,,,
waveOut,2,1,115,124,95,150,154,161,168,170,135,147,143,129,122,114,139,146,191,215,245,226,227,299,368,396,425,581,644,703,767,873,862,917,935,977,1045,1065,1041,1005,1026,977,1044,1101,1151,1169,1168,1192,1275,1382,1373,1331,1352,1252,1137,1146,1335,1241,1283,1263,1264,1188,1228,1158,1216,1264,1174,1093,1136,1096,945,959,985,1002,1068,1099,1080,1109,1062,983,961,918,849,867,768,733,711,763,678,696,678,731,623,565,528,489,344,351,263,247,244,315,336,347,354,355,286,278,331,323,315,297,244,148,145,130,128,105,75,116,120,,,,,,,,,,,,,,,,,,,,,,,,,,,,,,,,,,,,,,,,,,,,,,,,,,,,,,,,,,,,,,,,,,,,,,,,,,,,,,,,,,,,,,,,,,,,,,,,,,,,,,,,,,,,,,,,,,,,,,,,,,,
waveOut,2,2,114,111,121,122,150,142,142,137,136,74,76,79,78,96,91,97,93,132,127,308,310,340,430,516,548,703,753,841,924,1012,1047,1123,1124,1177,1191,1211,1159,1182,1100,1149,1177,1194,1201,1187,1177,1141,1178,1239,1271,1224,1334,1351,1256,1239,1238,1132,1113,1093,1164,1176,1096,1090,1237,1180,1130,1166,1124,1084,1166,1139,1153,1247,1135,1107,1166,1119,1050,1139,1069,977,1059,1028,1019,1075,1135,1174,1184,1143,1125,1173,1077,1049,1067,1100,1029,1047,1013,981,875,789,668,633,461,466,489,449,438,448,417,387,376,382,365,271,240,221,200,197,108,62,198,209,217,221,224,136,123,113,127,156,141,,,,,,,,,,,,,,,,,,,,,,,,,,,,,,,,,,,,,,,,,,,,,,,,,,,,,,,,,,,,,,,,,,,,,,,,,,,,,,,,,,,,,,,,,,,,,,,,,,,,,,,,,,,,,,,
waveOut,2,3,58,61,131,134,138,138,137,86,115,123,119,119,109,77,58,54,58,71,71,74,91,90,90,89,90,120,158,263,317,355,441,569,727,772,901,948,957,887,986,924,950,1017,1053,1042,1050,1022,978,973,1042,1167,1252,1238,1252,1181,1141,1119,1187,1266,1369,1379,1396,1416,1324,1307,1301,1228,1218,1283,1191,1184,1234,1311,1280,1286,1285,1270,1133,1166,1104,1040,977,908,787,980,951,953,971,975,858,784,722,644,582,391,397,359,343,272,216,201,176,157,145,75,68,60,57,53,53,49,47,43,42,37,31,29,30,39,44,47,46,48,42,43,,,,,,,,,,,,,,,,,,,,,,,,,,,,,,,,,,,,,,,,,,,,,,,,,,,,,,,,,,,,,,,,,,,,,,,,,,,,,,,,,,,,,,,,,,,,,,,,,,,,,,,,,,,,,,,,,,,,,,
waveOut,2,4,49,35,51,58,62,69,72,79,74,73,92,92,82,82,89,79,80,78,77,69,58,57,54,54,72,75,77,119,142,175,254,273,263,276,259,198,225,264,302,380,454,483,538,647,620,599,617,672,629,671,700,713,717,741,802,838,825,796,868,880,880,599,617,672,927,1071,1134,1247,1249,1314,1375,1426,1289,1306,1226,1091,961,1105,1114,1111,1078,1219,1221,1273,1311,1327,1300,1262,1244,1251,1314,1279,1200,1173,1222,1205,1219,1227,1184,1156,1078,1101,1102,1093,954,951,825,715,626,589,493,325,319,372,380,373,369,347,207,133,108,91,73,68,63,87,88,86,85,85,44,43,42,40,41,40,38,43,,,,,,,,,,,,,,,,,,,,,,,,,,,,,,,,,,,,,,,,,,,,,,,,,,,,,,,,,,,,,,,,,,,,,,,,,,,,,,,,,,,,,,,,,,,,,,,,,,,,,,,,
waveOut,2,5,64,69,70,66,59,64,66,61,65,59,54,65,66,61,66,64,51,52,53,51,58,58,56,55,53,69,133,147,158,214,270,327,340,363,419,467,452,514,647,626,745,868,887,889,902,896,842,959,1059,1161,1172,1204,1199,1181,1168,1141,1175,1140,1039,1040,1108,1183,1201,1224,1204,1160,1116,1110,1123,1165,1175,1101,1137,1197,1152,1131,1194,1161,1125,1187,1244,1210,1165,1145,1076,990,1077,1087,1125,1206,1197,1083,1139,1078,914,858,803,643,585,601,579,590,597,539,502,505,446,405,380,338,310,238,173,159,157,146,134,63,64,52,49,45,41,44,47,46,45,45,,,,,,,,,,,,,,,,,,,,,,,,,,,,,,,,,,,,,,,,,,,,,,,,,,,,,,,,,,,,,,,,,,,,,,,,,,,,,,,,,,,,,,,,,,,,,,,,,,,,,,,,,,,,,,,,,,
waveOut,2,6,56,61,59,49,57,57,48,59,59,196,249,419,444,508,489,578,566,582,540,557,490,520,504,542,611,636,589,633,718,729,777,796,792,789,879,889,973,1102,1148,1057,1114,1073,999,980,1044,990,1038,1139,1104,1092,1065,1010,993,1005,1071,1208,1262,1206,1268,1215,1139,1122,1148,1093,1110,1136,1203,1134,1123,1140,1093,961,959,892,814,766,811,895,1011,994,976,1025,1039,1021,1124,1156,1065,1038,975,853,899,999,957,1002,999,902,794,717,620,562,516,434,399,394,384,375,341,325,198,142,114,114,95,96,98,92,64,58,54,54,66,71,79,76,78,67,67,62,68,71,72,66,64,64,63,63,64,,,,,,,,,,,,,,,,,,,,,,,,,,,,,,,,,,,,,,,,,,,,,,,,,,,,,,,,,,,,,,,,,,,,,,,,,,,,,,,,,,,,,,,,,,,,,,,,,,,,,,,,,
waveOut,2,7,68,73,63,61,53,67,65,73,78,80,70,69,63,53,64,67,70,67,70,68,79,77,83,137,142,144,167,226,404,479,498,574,592,559,554,570,507,566,588,667,721,769,827,841,907,1007,1034,1040,1098,1138,1099,1138,1152,1133,1059,991,985,1009,1012,1030,1171,1128,1195,1217,1279,1215,1243,1254,1211,1173,1186,1189,1060,1161,1133,1191,1228,1263,1228,1212,1165,1192,1242,1261,1295,1331,1255,1284,1208,1232,1214,1291,1166,1181,1124,1080,1061,1060,1149,1112,1088,1045,1156,1096,1173,1192,1202,1161,1150,1086,1123,1082,1036,1007,999,854,830,806,777,704,799,772,685,581,575,522,500,488,484,459,412,356,333,334,327,162,144,124,246,248,252,252,250,128,205,202,202,205,197,129,182,181,179,178,199,149,155,159,160,112,,,,,,,,,,,,,,,,,,,,,,,,,,,,,,,,,,,,,,,,,,,,,,,,,,,,,,,,,,,,,,,,,,,,,,,,,,,,,,,,,,
waveOut,2,8,69,71,74,74,64,88,164,213,222,248,350,391,393,434,464,536,567,598,627,654,568,607,597,544,556,577,570,653,779,787,868,958,942,1047,1118,1133,1115,1185,1188,1225,1201,1203,1273,1191,1225,1278,1303,1286,1366,1332,1375,1344,1283,1246,1233,1115,1295,1344,1344,1266,1318,1192,1093,1120,1178,1190,1155,1245,1201,1160,1150,1080,1007,957,946,911,1079,1085,1095,1132,1149,1034,970,938,888,804,748,686,654,608,539,461,452,476,446,420,398,400,239,255,279,277,270,233,179,112,150,151,148,139,146,129,131,131,129,119,66,52,50,44,51,51,51,52,49,41,44,45,44,52,,,,,,,,,,,,,,,,,,,,,,,,,,,,,,,,,,,,,,,,,,,,,,,,,,,,,,,,,,,,,,,,,,,,,,,,,,,,,,,,,,,,,,,,,,,,,,,,,,,,,,,,,,,,,,,,
waveOut,2,9,33,49,51,51,46,52,37,36,35,46,39,40,43,44,60,106,189,217,225,230,224,168,143,134,121,106,137,147,178,230,236,263,289,313,312,419,463,453,526,571,507,493,503,477,441,496,496,513,530,552,594,672,789,804,927,921,1122,1113,1163,1114,1129,1027,1073,1130,1198,1249,1230,1282,1260,1235,1180,1112,999,974,962,1044,1124,1137,1174,1210,1178,1132,1127,1009,942,926,924,926,1000,1051,1113,1190,1213,1202,1213,1131,1076,1004,1009,946,1071,1118,1175,1267,1294,1213,1117,1075,970,933,1013,1093,1249,1215,1224,1142,1131,1103,1126,1091,1098,1030,817,737,692,585,535,568,550,515,511,442,387,417,386,386,379,323,212,330,316,315,316,305,133,119,132,118,115,114,117,79,105,112,110,107,107,85,65,73,79,79,69,68,51,52,52,,,,,,,,,,,,,,,,,,,,,,,,,,,,,,,,,,,,,,,,,,,,,,,,,,,,,,,,,,,,,,,,,,,,,,,,,,,
waveIn,2,0,154,164,192,193,204,212,208,193,194,243,287,287,299,318,287,371,372,374,371,378,250,228,236,238,218,208,246,239,222,217,228,229,335,361,383,382,386,302,296,333,425,435,442,429,390,314,295,333,334,336,340,322,261,270,276,294,336,341,368,363,382,404,403,416,437,420,369,393,386,398,372,376,362,418,431,433,438,450,438,443,496,480,474,435,403,351,363,356,320,317,305,302,289,283,361,360,355,364,367,257,222,270,242,258,256,259,235,235,213,247,238,247,241,305,277,,,,,,,,,,,,,,,,,,,,,,,,,,,,,,,,,,,,,,,,,,,,,,,,,,,,,,,,,,,,,,,,,,,,,,,,,,,,,,,,,,,,,,,,,,,,,,,,,,,,,,,,,,,,,,,,,,,,,,,,,,,,,,,
waveIn,2,1,196,219,202,216,262,234,226,229,232,186,190,174,169,152,196,220,238,269,402,478,468,477,474,371,262,260,251,232,233,175,168,261,258,262,277,287,182,180,159,133,113,96,137,144,143,147,158,130,134,354,438,469,482,503,407,361,360,355,351,325,299,285,274,240,239,238,262,398,466,477,513,540,551,552,606,595,568,477,438,428,414,396,395,368,340,347,326,309,303,242,281,283,362,456,524,617,652,691,673,676,561,569,501,468,382,466,476,461,456,454,373,312,354,385,381,360,348,329,275,292,286,256,188,193,214,262,264,265,244,189,257,261,321,367,373,303,300,243,179,174,156,,,,,,,,,,,,,,,,,,,,,,,,,,,,,,,,,,,,,,,,,,,,,,,,,,,,,,,,,,,,,,,,,,,,,,,,,,,,,,,,,,,,,,,,,,,,,,,,,,,,,
waveIn,2,2,106,164,166,163,165,158,90,83,64,55,97,146,165,285,319,333,341,352,274,258,256,236,246,266,268,246,269,321,319,337,364,368,301,286,313,304,304,334,361,344,373,392,453,451,441,442,407,316,298,285,317,355,371,379,389,347,312,297,291,359,365,409,466,484,486,533,512,455,478,499,444,448,462,469,502,623,643,633,608,522,350,278,350,319,295,293,288,281,311,309,299,347,292,272,334,361,373,373,471,472,462,434,465,377,378,388,413,376,379,341,347,307,288,328,324,371,382,381,323,330,259,241,244,,,,,,,,,,,,,,,,,,,,,,,,,,,,,,,,,,,,,,,,,,,,,,,,,,,,,,,,,,,,,,,,,,,,,,,,,,,,,,,,,,,,,,,,,,,,,,,,,,,,,,,,,,,,,,,,,,,,,,,
waveIn,2,3,109,168,172,171,174,172,155,153,159,154,181,160,158,162,188,164,159,153,143,102,83,69,68,70,79,103,151,163,241,265,309,300,309,303,289,315,332,339,314,317,247,221,202,192,194,199,207,245,277,288,356,379,357,351,358,293,285,318,313,443,469,469,500,492,382,380,375,310,368,400,393,523,571,554,539,588,537,518,502,508,447,367,322,311,275,238,242,217,207,178,164,109,89,71,60,59,53,51,67,134,260,299,326,334,331,267,235,232,235,237,256,253,250,256,236,218,238,214,225,223,,,,,,,,,,,,,,,,,,,,,,,,,,,,,,,,,,,,,,,,,,,,,,,,,,,,,,,,,,,,,,,,,,,,,,,,,,,,,,,,,,,,,,,,,,,,,,,,,,,,,,,,,,,,,,,,,,,,,,,,,,
waveIn,2,4,126,129,98,110,147,175,178,174,162,132,105,143,149,166,166,196,210,328,388,406,446,437,378,315,290,189,204,160,143,143,143,74,59,66,79,101,155,161,159,154,146,99,102,106,122,141,141,212,216,213,259,348,357,385,401,378,399,386,367,357,361,254,210,214,304,376,430,434,488,529,523,487,544,503,424,361,358,300,320,297,318,363,349,362,365,378,414,419,437,445,446,380,391,362,344,332,344,328,303,374,355,393,386,375,305,319,277,254,258,288,273,244,272,264,269,257,231,192,178,103,105,101,104,121,119,146,171,216,234,256,304,391,427,432,421,416,328,317,304,306,260,275,244,232,278,275,275,235,,,,,,,,,,,,,,,,,,,,,,,,,,,,,,,,,,,,,,,,,,,,,,,,,,,,,,,,,,,,,,,,,,,,,,,,,,,,,,,,,,,,,,,,,,,,,,
waveIn,2,5,136,109,118,118,112,109,99,67,71,73,79,95,101,96,89,80,84,93,102,107,108,96,88,79,75,72,71,68,69,69,71,64,71,72,96,103,104,99,97,70,62,79,79,78,81,78,58,55,64,82,106,166,168,199,203,196,157,189,166,166,198,271,334,371,411,481,500,526,510,502,444,399,296,304,258,265,252,373,416,471,466,537,508,576,572,570,560,537,471,487,557,524,541,507,528,472,448,406,418,338,306,349,346,304,301,367,342,342,347,322,279,246,241,272,291,251,342,425,477,520,584,552,516,475,492,457,464,458,481,424,382,359,379,340,306,319,383,361,334,332,308,275,283,288,293,290,220,223,216,254,263,,,,,,,,,,,,,,,,,,,,,,,,,,,,,,,,,,,,,,,,,,,,,,,,,,,,,,,,,,,,,,,,,,,,,,,,,,,,,,,,,,,,,,,,,,,
waveIn,2,6,142,146,145,144,133,91,84,70,56,50,42,37,38,36,40,36,37,34,39,44,42,49,54,54,58,65,73,78,82,81,90,96,102,125,167,175,197,292,293,293,344,382,368,398,413,460,439,404,430,429,340,329,347,281,272,267,254,226,212,229,231,264,375,394,405,429,426,377,391,392,401,424,407,395,380,356,317,311,297,300,288,284,258,263,207,185,157,133,74,92,116,132,162,189,206,217,259,310,381,395,400,376,356,311,292,287,288,273,226,219,289,281,282,275,266,157,161,143,136,133,127,,,,,,,,,,,,,,,,,,,,,,,,,,,,,,,,,,,,,,,,,,,,,,,,,,,,,,,,,,,,,,,,,,,,,,,,,,,,,,,,,,,,,,,,,,,,,,,,,,,,,,,,,,,,,,,,,,,,,,,,,
waveIn,2,7,89,86,88,77,86,74,72,73,69,58,52,46,40,38,37,40,41,39,42,44,36,38,40,40,40,40,35,34,32,30,34,38,41,40,40,36,31,31,37,48,55,59,68,97,109,117,124,134,128,139,190,208,248,318,361,356,364,379,339,287,268,280,235,224,269,336,331,370,365,370,359,348,312,359,333,282,312,364,383,481,599,641,656,636,570,486,471,427,409,418,385,380,428,456,476,473,431,400,446,417,417,394,344,212,178,146,129,124,129,152,163,159,193,214,281,276,284,275,309,284,356,367,369,339,308,212,221,204,189,170,275,268,269,271,277,221,214,206,216,231,194,188,198,193,193,,,,,,,,,,,,,,,,,,,,,,,,,,,,,,,,,,,,,,,,,,,,,,,,,,,,,,,,,,,,,,,,,,,,,,,,,,,,,,,,,,,,,,,,,,,,,,,,,
waveIn,2,8,101,111,99,129,124,115,104,133,119,124,125,139,136,136,132,136,172,216,215,244,241,217,174,173,164,175,190,218,300,348,385,398,431,409,364,342,320,292,249,255,264,301,294,367,420,605,666,712,704,713,635,615,620,607,558,485,471,465,573,578,598,708,710,692,712,698,639,631,591,643,666,586,553,513,499,477,504,534,572,546,524,526,475,434,372,355,292,258,213,183,178,128,126,117,109,89,78,71,98,112,178,230,251,307,381,424,430,471,455,402,362,369,344,331,346,352,311,,,,,,,,,,,,,,,,,,,,,,,,,,,,,,,,,,,,,,,,,,,,,,,,,,,,,,,,,,,,,,,,,,,,,,,,,,,,,,,,,,,,,,,,,,,,,,,,,,,,,,,,,,,,,,,,,,,,,,,,,,,,,
waveIn,2,9,177,158,156,160,220,211,207,200,203,138,126,124,112,103,172,184,193,219,212,162,175,173,232,246,316,320,330,300,317,249,241,320,312,300,300,162,175,303,307,268,305,309,321,315,297,308,317,329,340,330,299,274,258,253,233,189,207,203,276,334,366,367,379,345,297,310,316,294,271,260,250,251,314,304,323,362,355,305,304,282,163,132,98,85,78,71,72,158,182,228,231,238,239,236,242,250,258,231,259,247,294,284,298,269,256,204,209,205,248,246,263,258,275,242,243,227,249,212,213,198,197,189,176,,,,,,,,,,,,,,,,,,,,,,,,,,,,,,,,,,,,,,,,,,,,,,,,,,,,,,,,,,,,,,,,,,,,,,,,,,,,,,,,,,,,,,,,,,,,,,,,,,,,,,,,,,,,,,,,,,,,,,,
doubleTap,2,0,72,72,70,72,80,92,102,106,103,105,114,112,107,117,116,112,120,123,135,151,159,158,199,198,186,173,204,191,226,225,231,210,199,149,168,309,533,606,618,625,592,493,459,567,603,622,739,842,820,795,773,609,397,262,239,225,198,194,294,306,303,295,296,211,195,180,191,189,171,158,158,161,159,148,143,131,98,88,95,101,105,95,103,98,87,97,101,100,107,104,88,85,70,107,114,128,139,140,129,129,127,114,140,122,121,114,114,90,95,95,113,117,126,139,140,128,122,103,78,72,65,66,70,70,74,87,93,90,93,86,63,55,62,59,59,65,74,79,81,83,88,80,75,84,88,78,81,97,90,88,94,96,81,77,79,120,124,216,239,397,428,440,479,622,617,698,722,720,608,536,411,392,441,539,663,822,974,1005,1001,992,948,847,823,814,730,639,616,553,500,554,526,469,416,393,304,286,238,309,306,325,318,314,246,224,196,261,295,300,302,306,273,247,238,253,229,213,227,252,233,233,246,207,252,261,287,284,286,222,224,211,194,209,213,217,205,240,232,210,186,194,143,132
doubleTap,2,1,70,70,61,72,75,74,74,99,94,101,142,167,160,172,170,136,113,136,137,135,137,149,138,124,133,132,117,132,189,196,203,222,226,203,200,195,195,201,184,197,206,215,287,357,548,635,682,807,926,903,862,841,708,526,447,547,752,850,1062,1145,1130,1040,1043,884,815,829,825,747,677,619,582,505,449,444,395,285,250,266,322,314,332,332,327,239,260,243,248,236,248,226,294,296,282,281,279,209,205,198,221,218,204,213,230,190,182,178,157,129,130,,,,,,,,,,,,,,,,,,,,,,,,,,,,,,,,,,,,,,,,,,,,,,,,,,,,,,,,,,,,,,,,,,,,,,,,,,,,,,,,,,,,,,,,,,,,,,,,,,,,,,,,,,,,,,,,,,,,,,,,,,,,,,,,,,,,,
doubleTap,2,2,101,107,116,115,90,78,69,54,51,56,86,83,103,105,106,86,99,88,90,115,136,135,155,153,188,203,236,239,254,234,242,244,259,285,294,297,290,323,313,366,360,543,637,692,707,809,759,719,734,715,617,570,651,631,680,880,1016,1031,1090,1126,1064,1087,995,916,838,754,475,477,455,424,360,476,494,485,492,523,493,543,530,529,535,469,365,447,440,385,389,471,467,476,466,461,379,276,264,254,265,256,241,213,296,291,295,298,302,215,216,242,248,249,283,269,230,291,267,248,272,277,228,252,,,,,,,,,,,,,,,,,,,,,,,,,,,,,,,,,,,,,,,,,,,,,,,,,,,,,,,,,,,,,,,,,,,,,,,,,,,,,,,,,,,,,,,,,,,,,,,,,,,,,,,,,,,,,,,,,,,,,,,,,,
doubleTap,2,3,205,241,277,252,261,257,224,228,227,213,215,217,162,172,187,196,190,174,200,188,175,213,211,168,160,152,85,118,123,127,167,167,134,133,143,156,165,165,164,154,112,182,198,211,210,199,149,128,128,149,159,184,222,226,293,491,523,593,615,621,517,646,741,803,903,969,1041,1011,971,902,826,614,492,444,359,363,323,299,343,340,313,339,325,292,271,268,220,218,204,197,164,156,204,207,200,211,217,232,218,241,232,230,208,214,213,217,244,208,196,161,181,136,146,177,189,191,193,187,158,229,209,218,228,229,204,193,,,,,,,,,,,,,,,,,,,,,,,,,,,,,,,,,,,,,,,,,,,,,,,,,,,,,,,,,,,,,,,,,,,,,,,,,,,,,,,,,,,,,,,,,,,,,,,,,,,,,,,,,,,,,,,,,,,,
doubleTap,2,4,83,74,78,116,117,119,120,114,83,80,77,67,67,65,62,74,75,76,79,88,146,161,179,177,191,154,143,123,129,131,134,132,148,176,188,201,224,239,339,413,460,494,580,671,658,632,603,535,500,568,636,668,723,737,741,698,676,689,580,461,474,511,416,405,410,375,323,287,289,277,275,270,260,233,240,247,259,251,259,263,230,207,221,206,217,214,189,169,216,185,181,178,191,166,175,186,197,203,169,164,233,242,244,243,307,256,247,,,,,,,,,,,,,,,,,,,,,,,,,,,,,,,,,,,,,,,,,,,,,,,,,,,,,,,,,,,,,,,,,,,,,,,,,,,,,,,,,,,,,,,,,,,,,,,,,,,,,,,,,,,,,,,,,,,,,,,,,,,,,,,,,,,,,,,
doubleTap,2,6,93,89,100,83,75,73,74,68,72,78,73,78,81,84,80,78,87,79,70,69,67,44,41,45,54,74,92,103,195,247,449,509,526,508,490,318,223,187,249,392,415,481,577,653,603,593,538,510,425,462,577,654,740,783,853,812,758,624,545,380,327,306,291,286,251,211,230,255,225,207,249,228,198,200,204,167,201,211,217,213,210,175,178,181,179,157,163,169,138,148,144,142,111,120,125,135,129,133,131,108,95,98,108,110,137,145,152,177,279,282,290,287,283,204,191,172,169,138,94,70,90,,,,,,,,,,,,,,,,,,,,,,,,,,,,,,,,,,,,,,,,,,,,,,,,,,,,,,,,,,,,,,,,,,,,,,,,,,,,,,,,,,,,,,,,,,,,,,,,,,,,,,,,,,,,,,,,,,,,,,,,,
doubleTap,2,7,140,144,110,113,155,188,211,202,207,202,179,164,197,227,231,242,250,265,236,213,225,219,164,176,177,172,166,173,167,179,191,190,217,236,341,415,448,618,671,649,608,633,534,605,667,724,748,897,884,872,834,809,653,568,505,554,511,429,397,378,300,320,323,331,331,287,263,235,221,202,190,162,193,194,227,246,247,220,223,266,254,300,297,279,195,210,142,148,146,172,151,146,138,184,164,159,166,180,137,131,149,188,184,180,182,172,110,111,125,128,116,177,167,163,174,178,,,,,,,,,,,,,,,,,,,,,,,,,,,,,,,,,,,,,,,,,,,,,,,,,,,,,,,,,,,,,,,,,,,,,,,,,,,,,,,,,,,,,,,,,,,,,,,,,,,,,,,,,,,,,,,,,,,,,,,,,,,,,,
doubleTap,2,8,138,167,149,149,150,137,114,153,155,155,166,148,124,135,187,193,211,246,353,382,440,443,441,423,464,474,520,552,610,597,708,745,762,819,815,706,629,578,381,314,303,302,295,265,338,330,393,402,405,340,308,248,240,229,240,225,214,201,211,216,230,201,205,202,191,175,185,158,143,178,180,223,221,236,228,225,177,178,223,201,195,191,207,133,124,125,117,92,87,93,105,147,149,147,150,138,128,121,132,141,149,,,,,,,,,,,,,,,,,,,,,,,,,,,,,,,,,,,,,,,,,,,,,,,,,,,,,,,,,,,,,,,,,,,,,,,,,,,,,,,,,,,,,,,,,,,,,,,,,,,,,,,,,,,,,,,,,,,,,,,,,,,,,,,,,,,,,,,,,,,,,
doubleTap,2,9,124,99,98,95,103,112,102,100,146,151,145,144,144,106,84,120,120,129,117,118,95,93,78,96,106,92,98,98,88,80,81,78,74,63,60,62,93,101,115,129,134,119,118,222,239,264,371,415,434,451,455,401,469,605,695,791,826,814,743,773,719,727,717,675,538,462,371,303,292,272,309,306,285,245,259,227,203,214,213,165,182,202,192,185,189,166,137,173,171,178,154,155,145,147,145,151,161,137,151,159,154,154,159,152,143,151,151,156,153,159,203,370,400,546,579,589,510,501,407,407,431,594,635,656,715,766,750,821,817,779,714,631,487,434,366,387,352,324,331,327,321,324,360,334,341,299,283,243,231,249,241,232,234,236,212,221,248,235,220,206,189,170,173,188,195,184,156,157,164,,,,,,,,,,,,,,,,,,,,,,,,,,,,,,,,,,,,,,,,,,,,,,,,,,,,,,,,,,,,,,,,,,,,,,,,,
fist,3,0,282,296,286,273,265,232,307,507,576,721,838,812,767,829,788,685,718,707,601,664,736,954,1047,1163,1142,1162,1021,984,910,996,1026,1043,1060,1060,1036,941,912,911,905,814,808,777,720,832,883,930,956,955,850,777,738,703,763,775,804,815,909,804,781,783,756,636,675,677,624,656,659,597,566,614,549,520,520,544,694,791,943,1112,1221,1255,1273,1241,1153,1086,969,901,821,852,789,890,892,887,839,870,720,713,737,706,637,616,639,606,610,685,680,647,647,710,683,677,701,683,572,512,507,,,,,,,,,,,,,,,,,,,,,,,,,,,,,,,,,,,,,,,,,,,,,,,,,,,,,,,,,,,,,,,,,,,,,,,,,,,,,,,,,,,,,,,,,,,,,,,,,,,,,,,,,,,,,,,,,,,,,,,,,,,,,,,
fist,3,1,216,220,193,186,190,164,162,156,163,153,184,179,193,213,223,204,222,220,207,215,214,215,236,264,265,308,339,358,379,377,351,384,428,421,490,492,535,483,473,440,455,439,583,590,643,718,837,868,908,904,914,806,724,783,759,710,704,655,567,541,520,486,501,539,615,633,637,641,597,615,608,719,737,739,767,839,799,821,811,810,774,761,771,741,621,624,659,705,842,893,899,871,890,933,935,1037,1085,1105,1097,1129,1075,1105,1056,996,1104,1061,1063,1169,1147,1050,1087,1052,954,997,930,957,928,841,757,775,639,635,733,724,739,790,716,639,618,608,497,580,538,570,509,511,475,458,476,475,,,,,,,,,,,,,,,,,,,,,,,,,,,,,,,,,,,,,,,,,,,,,,,,,,,,,,,,,,,,,,,,,,,,,,,,,,,,,,,,,,,,,,,,,,,,,,,,,,,,,,
fist,3,2,233,232,296,298,269,280,303,256,284,275,291,260,326,319,311,288,300,222,195,236,229,250,260,298,292,314,318,319,276,274,263,243,220,233,205,209,186,182,189,207,230,246,246,235,232,240,226,250,247,239,198,203,183,260,253,314,354,470,483,559,618,708,723,720,858,842,789,773,780,592,535,515,452,406,448,482,461,479,506,511,528,539,573,596,642,633,661,672,748,687,709,763,725,673,672,614,486,457,352,354,414,437,621,743,806,867,969,994,987,1044,1197,1176,1164,1177,1180,1043,1077,1091,1076,1135,1130,1125,1118,1171,1074,1077,1089,1162,1155,1167,1159,1078,969,905,836,810,845,837,757,857,808,870,881,878,793,,,,,,,,,,,,,,,,,,,,,,,,,,,,,,,,,,,,,,,,,,,,,,,,,,,,,,,,,,,,,,,,,,,,,,,,,,,,,,,,,,,,,,,,,,,,,,,,,
fist,3,3,266,280,257,282,269,243,332,354,387,428,440,406,398,378,339,321,303,291,251,278,292,315,394,463,463,539,509,456,422,402,367,372,364,433,433,447,460,508,535,591,578,618,676,624,696,783,815,792,778,751,652,630,610,670,603,661,616,593,570,635,600,621,688,672,715,688,812,749,732,650,668,526,570,548,484,418,358,239,240,235,225,146,173,321,398,560,672,817,914,993,1091,1116,1089,1032,1032,872,809,781,743,676,764,865,902,943,1018,1032,963,1022,1043,957,930,997,905,896,913,864,787,,,,,,,,,,,,,,,,,,,,,,,,,,,,,,,,,,,,,,,,,,,,,,,,,,,,,,,,,,,,,,,,,,,,,,,,,,,,,,,,,,,,,,,,,,,,,,,,,,,,,,,,,,,,,,,,,,,,,,,,,,,,,
fist,3,4,122,128,110,127,143,136,137,167,158,157,178,200,177,189,209,223,210,233,228,239,212,210,190,188,170,179,181,198,203,211,354,387,413,459,470,424,430,470,442,454,428,419,353,332,308,290,259,268,313,317,355,487,508,588,602,647,597,619,637,663,620,603,600,553,593,588,654,653,587,500,501,399,363,367,409,372,344,311,355,435,535,569,658,750,795,784,890,939,983,967,1021,1053,1016,1016,1031,1030,942,1006,940,1053,995,972,901,859,662,711,763,767,786,811,812,847,868,854,787,730,674,543,538,517,600,507,515,472,589,519,522,531,547,511,454,461,445,433,320,338,320,303,310,295,330,309,356,407,435,401,411,433,362,340,328,319,248,286,255,396,401,434,431,436,310,323,282,252,259,391,372,386,385,371,366,384,373,410,427,339,377,,,,,,,,,,,,,,,,,,,,,,,,,,,,,,,,,,,,,,,,,,,,,,,,,,,,,,,,,,,,,,,,,
fist,3,5,158,166,164,164,217,219,233,252,261,217,236,235,237,247,260,229,218,191,169,194,223,227,240,245,209,206,230,291,300,359,364,353,310,305,280,267,325,329,332,358,373,331,351,420,418,399,480,529,541,585,611,622,631,650,592,593,507,461,387,414,392,506,490,466,478,515,521,557,630,630,675,670,728,736,794,789,854,834,879,875,937,896,924,896,892,783,757,699,670,592,591,575,523,486,476,487,463,463,457,457,456,423,423,370,342,296,269,240,249,252,249,452,508,529,566,677,780,823,846,879,861,755,793,862,854,871,871,817,772,874,852,802,842,856,745,712,722,705,653,648,603,595,552,529,539,580,599,552,551,500,522,575,590,735,734,704,692,653,458,466,487,393,441,435,,,,,,,,,,,,,,,,,,,,,,,,,,,,,,,,,,,,,,,,,,,,,,,,,,,,,,,,,,,,,,,,,,,,,,,,,,,,,,
fist,3,6,228,238,261,233,227,268,276,259,260,265,271,287,275,270,272,230,194,200,245,266,322,362,374,359,341,281,220,213,270,339,358,376,392,349,322,339,328,317,319,320,283,385,442,465,463,493,436,383,467,493,533,552,570,501,473,408,351,310,300,304,291,310,384,369,468,487,501,481,516,462,455,483,470,429,377,386,341,304,314,292,266,235,214,198,192,148,178,213,283,418,501,537,604,676,756,830,900,1019,1013,1061,1049,1070,991,1024,980,981,988,960,952,944,911,868,890,880,838,855,869,878,885,914,969,894,844,836,768,665,801,849,815,833,814,729,662,639,,,,,,,,,,,,,,,,,,,,,,,,,,,,,,,,,,,,,,,,,,,,,,,,,,,,,,,,,,,,,,,,,,,,,,,,,,,,,,,,,,,,,,,,,,,,,,,,,,,,,,,,,,,,
fist,3,7,229,230,243,267,242,233,238,224,279,314,339,350,368,387,364,340,323,319,273,268,279,313,294,341,349,350,344,354,320,298,289,270,254,193,221,225,208,213,213,176,157,159,139,149,155,171,188,222,245,250,256,308,376,436,472,573,564,624,632,628,556,536,408,302,248,195,187,217,277,384,486,551,555,537,515,473,427,485,543,500,473,475,417,348,355,361,336,321,358,345,330,325,325,262,268,231,228,201,179,167,183,166,196,220,252,350,432,504,573,724,897,929,974,976,899,789,879,851,893,955,964,943,960,979,986,992,914,924,874,850,861,823,814,756,705,586,628,538,603,598,599,,,,,,,,,,,,,,,,,,,,,,,,,,,,,,,,,,,,,,,,,,,,,,,,,,,,,,,,,,,,,,,,,,,,,,,,,,,,,,,,,,,,,,,,,,,,,,,,,,,,,
fist,3,8,366,409,424,388,400,380,360,304,310,298,283,279,296,274,289,279,271,257,254,234,250,250,248,246,268,255,256,308,310,283,314,321,265,265,269,229,198,190,181,194,194,191,220,220,199,196,192,216,203,228,233,233,197,252,255,254,314,325,342,364,423,414,426,402,403,370,354,336,318,281,236,220,195,214,210,233,234,299,363,463,484,504,524,537,506,506,509,482,473,467,443,442,450,391,346,352,321,291,270,232,196,169,124,120,236,339,490,620,677,718,787,815,812,889,892,929,870,929,895,979,916,1006,980,1003,947,950,925,897,865,788,783,697,681,755,770,801,840,789,633,636,533,433,,,,,,,,,,,,,,,,,,,,,,,,,,,,,,,,,,,,,,,,,,,,,,,,,,,,,,,,,,,,,,,,,,,,,,,,,,,,,,,,,,,,,,,,,,,,,,,,,,,,
fist,3,9,176,178,172,173,186,169,169,162,168,159,155,147,178,175,191,186,213,190,192,188,190,157,171,169,188,217,218,212,216,190,155,176,160,164,184,192,178,210,213,218,256,260,272,285,273,267,302,300,364,384,436,508,529,534,531,509,477,510,577,600,593,595,608,511,528,601,629,617,694,683,661,637,615,532,496,411,323,253,185,154,143,139,210,271,456,503,522,574,627,557,599,724,747,767,779,759,790,779,784,833,1015,936,937,910,903,750,810,827,806,833,779,732,757,786,708,775,719,739,679,677,569,640,506,586,568,603,538,,,,,,,,,,,,,,,,,,,,,,,,,,,,,,,,,,,,,,,,,,,,,,,,,,,,,,,,,,,,,,,,,,,,,,,,,,,,,,,,,,,,,,,,,,,,,,,,,,,,,,,,,,,,,,,,,,,
fingersSpread,3,0,36,35,35,35,32,31,33,32,31,27,29,29,30,29,33,178,230,296,502,686,862,1022,1122,1167,1253,1268,1218,1265,1296,1198,1253,1308,1341,1362,1376,1323,1298,1194,1165,1169,1105,1147,1171,1129,1196,1303,1197,1222,1223,1195,1201,1280,1265,1268,1201,1086,1086,1008,937,980,966,845,857,835,771,697,672,624,577,465,391,347,255,275,267,257,249,264,226,222,224,236,249,251,251,243,253,215,190,195,198,139,167,166,140,,,,,,,,,,,,,,,,,,,,,,,,,,,,,,,,,,,,,,,,,,,,,,,,,,,,,,,,,,,,,,,,,,,,,,,,,,,,,,,,,,,,,,,,,,,,,,,,,,,,,,,,,,,,,,,,,,,,,,,,,,,,,,,,,,,,,,,,,,,,,,,,,,,
fingersSpread,3,1,31,32,30,29,20,21,22,22,23,23,22,22,25,26,30,110,193,248,438,480,628,679,718,678,765,772,786,843,946,987,1007,1156,1231,1243,1223,1278,1204,1152,1142,1131,1141,1155,1159,1231,1268,1231,1240,1245,1187,1219,1278,1260,1288,1260,1311,1289,1378,1385,1376,1317,1288,1160,1128,1169,1202,1140,1211,1216,1227,1171,1279,1215,1140,1212,1248,1168,1143,1220,1069,935,962,931,780,690,647,412,314,270,257,225,152,143,127,107,102,57,50,50,47,40,64,61,61,58,59,33,31,35,,,,,,,,,,,,,,,,,,,,,,,,,,,,,,,,,,,,,,,,,,,,,,,,,,,,,,,,,,,,,,,,,,,,,,,,,,,,,,,,,,,,,,,,,,,,,,,,,,,,,,,,,,,,,,,,,,,,,,,,,,,,,,,,,,,,,,
fingersSpread,3,2,29,28,28,26,26,28,29,25,31,29,28,27,28,23,23,24,23,22,23,22,21,119,255,384,625,823,932,989,1153,1143,1103,1085,1116,1043,1021,1131,1197,1159,1083,1156,1095,1058,1153,1171,1139,1103,1057,990,1048,1141,1200,1240,1258,1238,1153,1096,1099,1129,1206,1337,1381,1477,1446,1514,1415,1380,1267,1294,1153,1207,1204,1301,1257,1332,1302,1322,1253,1245,1172,1277,1223,1310,1388,1411,1301,1341,1230,1158,1135,1073,1002,957,931,802,712,662,564,472,427,409,356,344,246,244,212,224,224,211,194,173,132,126,108,107,96,90,79,63,50,73,76,74,,,,,,,,,,,,,,,,,,,,,,,,,,,,,,,,,,,,,,,,,,,,,,,,,,,,,,,,,,,,,,,,,,,,,,,,,,,,,,,,,,,,,,,,,,,,,,,,,,,,,,,,,,,,,,,,,,,,,,,,
fingersSpread,3,3,24,24,26,27,25,28,28,29,29,39,37,40,82,137,173,222,273,370,469,541,636,698,684,711,720,705,719,749,738,804,864,847,943,947,939,879,915,966,1027,1039,1136,1135,1102,1169,1298,1286,1324,1310,1235,1157,1169,1158,1168,1117,1101,1034,1003,990,1043,1023,1082,1124,1116,1170,1187,1155,1137,1152,1089,1148,1167,1191,1236,1250,1147,1167,1182,1262,1267,1299,1289,1270,1165,1156,1126,1153,1169,1301,1288,1263,1238,1182,909,907,875,746,623,582,475,385,317,316,303,233,242,204,208,197,163,140,143,117,115,113,111,110,111,108,113,102,91,100,97,79,77,,,,,,,,,,,,,,,,,,,,,,,,,,,,,,,,,,,,,,,,,,,,,,,,,,,,,,,,,,,,,,,,,,,,,,,,,,,,,,,,,,,,,,,,,,,,,,,,,,,,,,,,,,,,,,,,,,,,,
fingersSpread,3,4,21,21,23,24,23,26,26,26,26,28,27,28,29,27,25,25,26,27,28,32,33,34,154,254,393,580,633,781,914,988,1042,1112,1055,1063,1039,999,996,1059,1129,1198,1250,1256,1229,1126,1116,1054,1113,1144,1185,1244,1244,1273,1293,1293,1168,1216,1160,1112,1063,1063,1023,1036,1073,1180,1248,1233,1179,1213,1129,1106,1183,1254,1222,1291,1232,1165,1063,1010,804,738,615,555,460,454,436,392,328,237,208,200,194,211,188,179,182,188,116,124,122,112,76,69,48,44,57,54,53,53,52,33,30,31,45,,,,,,,,,,,,,,,,,,,,,,,,,,,,,,,,,,,,,,,,,,,,,,,,,,,,,,,,,,,,,,,,,,,,,,,,,,,,,,,,,,,,,,,,,,,,,,,,,,,,,,,,,,,,,,,,,,,,,,,,,,,,,,,,,
fingersSpread,3,5,23,24,23,27,26,25,25,26,25,25,26,26,32,31,31,31,54,58,58,61,89,86,98,118,178,331,356,364,390,512,525,544,648,928,971,1028,1187,1245,1153,1138,1190,1169,1165,1141,1226,1149,1179,1331,1354,1368,1495,1435,1372,1423,1410,1387,1406,1327,1275,1274,1248,1240,1205,1167,1190,1136,1104,1174,1141,1150,1192,1326,1354,1434,1367,1340,1283,1246,1252,1217,1208,1091,1105,1046,1051,967,1179,1202,1230,1303,1382,1242,1174,1245,1179,1197,1187,1157,1078,1121,1057,1037,1023,898,732,610,568,459,431,407,358,215,166,166,153,151,138,132,117,,,,,,,,,,,,,,,,,,,,,,,,,,,,,,,,,,,,,,,,,,,,,,,,,,,,,,,,,,,,,,,,,,,,,,,,,,,,,,,,,,,,,,,,,,,,,,,,,,,,,,,,,,,,,,,,,,,,,,,,,,,
fingersSpread,3,6,23,25,25,24,26,25,23,27,29,27,28,27,26,24,24,26,26,23,28,29,27,28,29,32,32,33,39,64,82,93,102,130,138,181,330,416,434,572,604,587,612,692,742,875,930,973,1036,1013,1028,1097,1161,1258,1310,1303,1314,1349,1268,1294,1301,1282,1214,1188,1178,1170,1103,1102,1154,1265,1325,1331,1366,1308,1220,1186,1190,1121,1127,1044,981,1197,1248,1269,1289,1343,1159,1161,1164,1305,1359,1398,1468,1572,1484,1357,1405,1285,1112,1015,1009,935,970,1030,1052,1043,998,955,837,799,786,687,590,560,447,333,300,248,212,209,211,208,170,170,139,102,97,90,80,75,93,88,89,89,89,63,57,54,48,51,47,40,41,,,,,,,,,,,,,,,,,,,,,,,,,,,,,,,,,,,,,,,,,,,,,,,,,,,,,,,,,,,,,,,,,,,,,,,,,,,,,,,,,,,,,,,,,,,,,,,,,,,,,
fingersSpread,3,7,1060,1124,1288,1257,1319,1350,1330,1205,1244,1249,1226,1284,1318,1345,1300,1289,1269,1290,1223,1203,1249,1203,1234,1270,1351,1264,1274,1165,1291,1225,1301,1333,1321,1172,1181,1091,1108,1249,1276,1290,1282,1249,1230,1293,1240,1233,1262,1277,1232,1289,1257,1155,1027,1038,962,971,959,1065,1014,928,879,837,545,384,399,404,391,357,282,256,175,180,182,220,209,213,208,210,157,159,178,163,154,201,236,222,226,227,186,125,123,113,91,76,80,71,,,,,,,,,,,,,,,,,,,,,,,,,,,,,,,,,,,,,,,,,,,,,,,,,,,,,,,,,,,,,,,,,,,,,,,,,,,,,,,,,,,,,,,,,,,,,,,,,,,,,,,,,,,,,,,,,,,,,,,,,,,,,,,,,,,,,,,,,,,,,,,,,,
fingersSpread,3,8,89,87,85,76,78,81,86,89,92,97,106,115,110,103,97,92,85,80,79,79,71,62,59,65,75,79,87,109,109,159,165,174,181,219,222,238,258,409,530,641,664,835,890,850,947,1120,1167,1168,1234,1201,1161,1258,1228,1222,1240,1250,1083,1162,1171,1144,1132,1131,1122,1163,1150,1235,1223,1256,1238,1341,1215,1226,1158,1125,1070,1089,1122,1136,1123,1061,1143,1119,1137,1215,1247,1225,1188,1129,1084,969,798,741,684,523,488,453,402,327,248,283,268,252,275,258,204,201,199,141,176,188,193,176,188,170,160,162,158,170,194,196,,,,,,,,,,,,,,,,,,,,,,,,,,,,,,,,,,,,,,,,,,,,,,,,,,,,,,,,,,,,,,,,,,,,,,,,,,,,,,,,,,,,,,,,,,,,,,,,,,,,,,,,,,,,,,,,,,,,,,,,,,
fingersSpread,3,9,78,80,87,85,111,110,111,107,120,113,105,119,128,117,115,135,125,122,123,109,82,80,89,123,118,119,119,105,61,57,68,74,88,111,118,127,122,115,102,114,140,144,152,154,207,189,196,243,281,294,307,317,303,304,321,315,310,314,315,301,328,335,351,342,339,400,520,530,680,776,807,836,887,822,792,884,891,908,1038,1108,1158,1166,1288,1302,1288,1268,1286,1164,1185,1248,1275,1278,1344,1290,1238,1212,1291,1299,1256,1250,1257,1173,1150,1287,1273,1274,1293,1218,1111,1167,1106,1081,1179,1198,1194,1251,1264,1267,1262,1241,1213,1199,1200,1145,1061,1005,1010,981,942,962,917,807,662,617,598,540,490,414,391,252,198,174,166,141,207,205,222,223,223,131,136,115,111,119,114,99,84,94,78,90,86,85,68,,,,,,,,,,,,,,,,,,,,,,,,,,,,,,,,,,,,,,,,,,,,,,,,,,,,,,,,,,,,,,,,,,,,,,,,,,,,,,,
waveOut,3,0,166,156,176,180,183,188,204,209,211,203,179,167,140,143,158,170,169,216,254,274,323,368,401,597,726,883,999,1128,1111,1190,1189,1231,1253,1317,1317,274,323,1230,1205,1133,1074,946,927,918,981,933,1018,1049,1089,1129,1182,1140,1134,1153,1145,1139,1230,1234,1197,1102,1141,1162,1190,1168,1217,1269,1178,1207,1183,1224,1191,1257,1230,1272,1253,1144,1138,1119,1110,1081,1134,1128,1150,1148,1112,1095,1071,1066,1062,1037,968,946,990,986,991,1037,1005,919,831,864,783,779,690,679,625,663,554,553,635,747,748,767,841,854,737,717,691,693,591,599,571,568,456,453,434,408,480,459,486,,,,,,,,,,,,,,,,,,,,,,,,,,,,,,,,,,,,,,,,,,,,,,,,,,,,,,,,,,,,,,,,,,,,,,,,,,,,,,,,,,,,,,,,,,,,,,,,,,,,,,,,,,,,,,,,,
waveOut,3,1,499,470,430,485,527,497,486,496,467,526,566,599,676,725,760,796,913,976,951,936,992,1011,1030,1080,1131,1156,1138,1113,1185,1249,1286,1329,1323,1278,1266,1197,1212,1207,1189,1179,1193,1149,1135,1125,1077,1165,1117,1148,1223,1236,1103,1168,1126,1093,1110,1136,1075,1212,1254,1172,1219,1241,1105,1127,1222,1236,1247,1305,1161,1098,1064,1095,1149,1224,1211,1190,1226,1169,1174,1192,1258,1154,1176,1164,1233,1110,1121,1091,1093,1045,1065,1031,976,928,894,939,967,953,971,928,984,974,958,869,827,707,631,574,573,554,488,479,479,498,544,539,525,513,495,423,357,306,309,261,371,373,391,377,385,345,310,290,306,310,328,383,,,,,,,,,,,,,,,,,,,,,,,,,,,,,,,,,,,,,,,,,,,,,,,,,,,,,,,,,,,,,,,,,,,,,,,,,,,,,,,,,,,,,,,,,,,,,,,,,,,,,,,,,,
waveOut,3,2,185,181,180,183,179,204,180,193,184,201,178,190,191,217,227,316,381,454,623,772,782,837,905,824,763,972,983,965,1035,1072,976,1061,1149,1204,1259,1238,1217,1214,1225,1173,1206,1224,1141,1070,1080,1023,975,999,1017,1029,1036,1106,1118,1166,1181,1224,1203,1267,1190,1171,1249,1198,1224,1289,1227,1130,1199,1116,1033,1105,1043,1111,1199,1240,1323,1380,1266,1134,1077,921,887,821,851,885,935,969,1003,1079,1106,1171,1165,1156,1183,1163,1067,1037,1072,916,909,944,1020,1087,1102,1147,1112,1054,932,883,774,761,718,700,732,695,691,696,725,733,728,731,700,661,715,724,720,805,856,804,847,874,812,802,791,748,659,616,599,668,677,699,711,628,545,588,565,532,,,,,,,,,,,,,,,,,,,,,,,,,,,,,,,,,,,,,,,,,,,,,,,,,,,,,,,,,,,,,,,,,,,,,,,,,,,,,,,,,,,,,,,,,,,,,,,,
waveOut,3,3,568,606,596,593,674,717,714,755,715,657,722,718,758,851,971,939,1020,1039,1008,904,930,901,836,869,1022,1052,1112,1143,1221,1146,1210,1210,1283,1233,1297,1286,1255,1167,1150,1143,1110,1132,1247,1261,1184,1169,1162,996,965,1043,1043,1015,1134,1096,1069,1070,1048,1030,1087,1106,1087,1134,1144,1104,1064,1062,1033,994,1054,1115,1122,1081,1195,1163,1100,1116,1235,1070,1129,1223,1189,1158,1191,1149,1068,1078,1111,1076,1064,1080,1073,1016,1110,1111,1058,1115,1109,1067,1085,1155,1160,1190,1151,1166,1112,1011,867,904,802,802,816,870,796,763,811,785,726,722,788,669,615,551,552,506,494,521,527,470,353,398,386,405,420,422,372,345,353,329,325,236,279,268,266,294,318,279,228,278,264,239,247,248,242,274,270,309,,,,,,,,,,,,,,,,,,,,,,,,,,,,,,,,,,,,,,,,,,,,,,,,,,,,,,,,,,,,,,,,,,,,,,,,,,,,,,,,,,,,,,
waveOut,3,4,319,326,410,395,392,360,445,436,460,556,712,759,810,863,892,886,856,870,896,916,963,976,980,958,954,954,1018,1087,1148,1123,1107,1223,1163,1190,1316,1374,1267,1331,1346,1357,1328,1285,1241,1191,1103,1035,1041,1049,1096,1126,1187,1203,1212,1101,1038,1006,992,1060,1241,1258,1289,1288,1230,1176,1164,1160,1206,1226,1155,1177,1116,1043,1057,1077,1078,1162,1205,1121,1134,1155,1087,1116,1175,1245,1263,1256,1273,1234,1159,1081,1023,972,943,849,784,817,849,809,783,802,819,701,690,658,579,542,465,451,455,548,445,457,430,412,260,247,193,264,269,273,290,321,268,279,286,267,254,275,359,359,337,318,,,,,,,,,,,,,,,,,,,,,,,,,,,,,,,,,,,,,,,,,,,,,,,,,,,,,,,,,,,,,,,,,,,,,,,,,,,,,,,,,,,,,,,,,,,,,,,,,,,,,,,,,,,,,,
waveOut,3,5,127,193,200,203,207,240,202,228,247,258,274,370,373,366,362,362,261,262,249,317,306,393,502,552,553,609,679,805,831,859,955,1067,1071,1123,1213,1212,1142,1095,1110,1056,998,1005,968,947,1101,1132,1116,1213,1249,1124,1162,1126,1129,1093,1176,1204,1287,1257,1242,1245,1216,1172,1114,1195,1135,1103,1173,1139,1110,1112,1132,1080,1169,1117,1079,1060,1078,1042,1138,1143,1174,1172,1155,1114,1097,1026,1009,1117,1090,1099,1161,1130,1079,1035,1147,1171,1215,1167,1192,1124,1126,1131,1125,1118,1083,991,980,1002,971,972,1061,1030,1057,1080,1069,1003,942,810,827,818,853,846,896,821,787,624,639,692,690,710,779,776,773,764,778,735,765,691,701,626,722,685,664,618,649,559,479,,,,,,,,,,,,,,,,,,,,,,,,,,,,,,,,,,,,,,,,,,,,,,,,,,,,,,,,,,,,,,,,,,,,,,,,,,,,,,,,,,,,,,,,,,,,,,,
waveOut,3,6,1148,1153,1229,1243,1171,1167,1177,1098,1024,1102,1110,1126,1083,1154,1122,1137,1181,1212,1171,1225,1174,1123,1180,1311,1277,1301,1267,1345,1263,1273,1202,1226,1125,1179,1249,1280,1345,1341,1265,1171,1207,1126,1138,1101,1082,1065,1103,1151,1124,1113,1120,1042,971,999,1009,1033,1073,1046,1041,1096,1071,1066,1054,1087,1074,1076,1094,1054,1075,989,916,850,888,778,988,1085,1121,1111,1149,975,876,855,871,820,841,763,714,787,815,744,758,698,462,315,361,338,341,350,449,415,415,467,531,508,632,630,652,592,545,375,359,230,218,168,183,191,187,186,192,,,,,,,,,,,,,,,,,,,,,,,,,,,,,,,,,,,,,,,,,,,,,,,,,,,,,,,,,,,,,,,,,,,,,,,,,,,,,,,,,,,,,,,,,,,,,,,,,,,,,,,,,,,,,,,,,,,,,,,,,,,
waveOut,3,7,55,44,42,52,74,106,175,300,453,510,563,629,709,644,632,657,608,567,631,661,641,667,630,684,891,999,1102,1195,1169,1073,1126,1111,1026,1115,1199,1116,1110,1158,1101,1094,1096,1163,1159,1224,1203,1198,1143,1166,1141,1161,1257,1356,1320,1300,1302,1277,1217,1257,1288,1341,1330,1273,1304,1320,1287,1273,1317,1304,1207,1102,1059,1108,1150,1249,1292,1290,1286,1233,1259,1231,1260,1179,1112,1017,1085,1030,1031,1128,1129,1044,1077,1136,1116,1171,1208,1187,1166,1184,1179,1192,1209,1193,1222,1180,1155,1147,1152,1104,1208,1183,1166,1163,1162,1081,1099,1153,1147,1123,1061,1122,1116,1057,1056,1116,1084,1021,1100,1096,1043,976,1072,980,1067,1233,1294,1338,1356,1315,1218,1202,1088,1117,1096,1149,1147,1138,1107,1115,1036,959,958,1053,1008,992,1055,1041,920,1005,998,1025,1048,1078,1011,1011,940,907,898,861,787,692,734,733,657,613,616,555,430,434,421,402,282,322,404,410,411,401,330,241,217,212,201,191,119,113,109,,,,,,,,,,,,,,,,,,,,,,,,,,,,,,,,,,,,,,,,,,,,,,,
waveOut,3,8,365,371,423,514,562,568,595,596,477,534,611,685,725,774,806,815,813,821,811,750,716,740,729,737,730,714,711,787,856,851,918,884,824,724,793,748,743,819,845,882,906,977,987,1076,1028,1073,1043,987,895,880,881,911,1048,1152,1198,1222,1312,1264,1212,1228,1196,1220,1174,1220,1183,1193,1179,1166,1099,1142,1103,981,1033,1098,1199,1323,1408,1403,1409,1311,1166,1124,1132,1185,1174,1247,1245,1293,1168,1196,1287,1237,1130,1184,1186,1018,986,1032,1011,1006,1080,1226,1226,1166,1133,1079,920,937,940,976,957,978,944,986,968,1040,1004,1013,1023,1004,952,949,872,919,972,961,965,980,951,851,883,860,851,782,764,750,765,784,770,761,650,570,479,393,316,243,181,159,144,153,134,132,126,140,136,149,150,162,153,127,,,,,,,,,,,,,,,,,,,,,,,,,,,,,,,,,,,,,,,,,,,,,,,,,,,,,,,,,,,,,,,,,,,,,,,,,,,,,,,,,,
waveOut,3,9,124,122,113,92,97,106,106,92,86,82,91,96,98,114,120,130,126,150,170,193,255,316,388,422,569,686,819,942,970,915,983,961,864,890,990,959,1004,1031,1038,1014,1021,1061,1113,1188,1173,1143,1098,1065,999,1069,1054,1092,1093,1162,1292,1288,1247,1304,1251,1057,1195,1233,1206,1217,1245,1122,1055,1050,1115,1083,1078,1133,1097,975,1071,1099,1012,1071,1109,1051,1062,1140,1164,1167,1247,1234,1180,1154,1205,1062,1013,1071,1072,1000,1121,1232,1271,1166,1186,1152,1090,1018,1081,1105,1101,1099,1059,1066,1014,1123,1117,1229,1258,1280,1113,1196,1082,1084,1035,1079,954,1026,968,926,864,860,806,728,745,721,756,694,752,717,688,631,567,490,472,607,513,501,496,508,360,442,452,463,,,,,,,,,,,,,,,,,,,,,,,,,,,,,,,,,,,,,,,,,,,,,,,,,,,,,,,,,,,,,,,,,,,,,,,,,,,,,,,,,,,,,,,,,,,,,,
waveIn,3,0,363,402,426,319,318,372,566,780,810,882,982,895,858,893,818,741,760,772,716,736,707,694,526,530,500,485,456,418,386,436,561,603,652,691,683,584,573,616,695,683,727,735,671,735,832,856,893,924,903,855,921,938,904,836,828,781,742,841,890,944,898,980,956,930,928,964,860,838,836,935,976,1069,1043,1057,952,958,856,894,830,836,902,936,957,944,977,850,788,784,816,736,793,826,841,914,1028,1084,1082,1067,1044,1026,914,982,1038,972,948,998,973,879,939,873,880,844,827,878,886,800,762,763,674,611,557,533,550,605,586,644,,,,,,,,,,,,,,,,,,,,,,,,,,,,,,,,,,,,,,,,,,,,,,,,,,,,,,,,,,,,,,,,,,,,,,,,,,,,,,,,,,,,,,,,,,,,,,,,,,,,,,,,,,,,,,,,,,,,
waveIn,3,1,254,232,307,342,382,381,419,387,341,294,307,287,374,442,438,452,534,466,407,430,432,461,474,472,474,578,459,454,453,467,429,531,564,577,613,563,535,527,540,551,528,461,501,506,446,478,563,569,620,657,654,595,557,585,580,631,657,655,644,658,718,767,785,744,765,667,629,653,638,612,666,713,719,850,885,869,817,801,682,628,637,654,735,753,734,681,761,650,662,676,800,707,768,862,982,933,999,997,926,808,767,704,658,721,773,801,786,829,790,715,745,740,668,640,614,605,594,579,571,629,565,582,785,751,731,890,981,899,955,996,944,989,987,981,950,896,763,690,721,678,622,591,619,484,475,528,474,412,481,512,450,459,566,530,586,601,624,,,,,,,,,,,,,,,,,,,,,,,,,,,,,,,,,,,,,,,,,,,,,,,,,,,,,,,,,,,,,,,,,,,,,,,,,,,,,,,,,,,,,
waveIn,3,2,227,221,275,307,323,320,315,274,258,236,257,280,278,278,282,275,268,264,264,253,239,255,273,275,319,403,462,518,593,640,600,630,579,577,533,529,424,446,359,372,466,465,542,606,643,670,782,747,715,666,574,531,611,590,605,620,519,437,465,489,486,491,498,465,404,413,404,317,285,276,260,284,298,302,343,321,327,331,329,297,335,338,321,311,316,263,225,224,218,180,161,146,153,233,321,337,340,332,304,210,185,212,234,216,220,219,195,159,143,139,142,149,176,179,177,173,303,316,340,340,352,259,232,199,210,197,176,168,164,142,118,109,119,118,143,186,186,236,255,246,274,301,285,312,367,419,446,523,604,616,590,728,754,732,784,884,782,822,789,734,637,636,505,550,535,515,535,546,511,519,559,542,514,517,490,605,625,613,597,588,508,445,487,468,491,346,343,,,,,,,,,,,,,,,,,,,,,,,,,,,,,,,,,,,,,,,,,,,,,,,,,,,,,,,
waveIn,3,3,231,212,229,270,259,269,295,313,306,304,314,319,349,338,329,369,376,331,397,405,366,355,407,337,398,419,409,386,376,303,295,412,384,450,482,503,418,423,350,303,226,309,305,380,398,486,494,511,467,530,519,527,601,606,563,604,586,539,621,626,590,572,622,594,602,576,590,550,478,462,486,585,537,558,582,556,415,396,381,335,293,259,262,245,304,346,364,381,379,392,384,372,352,376,281,248,265,306,357,399,436,429,400,326,270,174,172,169,169,165,164,151,171,259,362,410,412,408,360,256,205,205,195,277,409,393,444,489,508,540,592,616,649,632,538,526,470,386,387,416,361,352,360,330,386,411,527,633,713,710,795,934,929,924,964,941,754,782,744,662,693,703,659,689,716,666,636,584,499,454,477,459,427,427,411,293,318,390,,,,,,,,,,,,,,,,,,,,,,,,,,,,,,,,,,,,,,,,,,,,,,,,,,,,,,,,,,,,,,,,
waveIn,3,5,174,219,212,214,208,181,158,152,150,162,178,159,184,180,180,179,177,163,162,205,227,237,295,316,304,296,287,219,188,159,122,192,243,254,252,271,233,177,156,159,123,126,160,176,170,175,191,165,165,169,177,164,219,260,271,357,382,418,418,529,516,506,545,556,502,552,646,613,713,724,710,655,652,564,581,562,621,616,602,560,600,567,540,543,538,446,345,352,348,375,417,437,523,536,494,464,447,399,383,422,414,477,459,456,445,457,430,507,566,559,630,616,551,495,514,486,617,776,816,818,949,945,944,922,945,801,857,718,683,700,707,608,611,698,647,664,638,665,624,642,633,566,555,506,491,,,,,,,,,,,,,,,,,,,,,,,,,,,,,,,,,,,,,,,,,,,,,,,,,,,,,,,,,,,,,,,,,,,,,,,,,,,,,,,,,,,,,,,,,,,,,,,,,
waveIn,3,6,212,197,238,256,261,283,290,257,250,272,273,277,328,365,360,371,360,321,308,296,265,273,259,298,337,331,328,339,289,247,237,243,365,479,490,509,524,503,430,468,465,490,478,469,430,447,425,389,402,388,364,375,369,306,351,350,304,295,336,292,304,308,328,276,305,278,268,239,238,168,310,326,388,387,393,313,338,281,360,361,362,362,434,398,412,421,421,395,444,501,545,564,646,651,758,742,900,940,1054,991,1014,937,924,788,769,729,644,483,448,502,476,470,482,479,371,366,364,335,424,405,438,421,434,325,315,309,308,273,274,292,277,259,,,,,,,,,,,,,,,,,,,,,,,,,,,,,,,,,,,,,,,,,,,,,,,,,,,,,,,,,,,,,,,,,,,,,,,,,,,,,,,,,,,,,,,,,,,,,,,,,,,,,,,,,,,,,,
waveIn,3,7,265,277,301,310,320,308,295,285,316,302,296,284,267,253,290,352,393,472,476,450,568,575,561,622,671,596,610,597,520,511,470,447,427,423,445,514,555,561,567,505,428,372,388,525,570,587,647,645,573,540,557,522,482,510,519,607,564,678,689,692,611,687,623,592,594,619,676,667,662,737,723,633,637,644,637,656,644,639,647,611,620,637,633,694,746,728,713,796,738,711,667,662,555,540,449,447,411,447,432,511,545,582,552,623,571,614,725,752,771,804,830,771,775,726,698,669,667,695,649,740,681,619,538,531,454,436,423,474,467,348,347,399,,,,,,,,,,,,,,,,,,,,,,,,,,,,,,,,,,,,,,,,,,,,,,,,,,,,,,,,,,,,,,,,,,,,,,,,,,,,,,,,,,,,,,,,,,,,,,,,,,,,,,,,,,,,,,
waveIn,3,8,221,245,271,296,316,323,358,369,363,367,346,428,516,544,558,603,534,560,557,606,560,637,540,572,586,666,807,863,846,807,789,660,648,691,711,716,702,670,707,742,708,726,736,730,698,726,646,640,564,533,501,557,535,515,586,608,669,692,700,623,627,501,450,433,416,336,362,354,424,455,443,449,501,454,466,469,430,406,375,384,418,410,403,401,340,313,319,268,239,332,331,338,325,371,299,273,250,256,186,186,201,204,189,181,141,147,151,159,169,167,166,158,164,193,211,261,423,513,513,609,657,649,699,761,792,831,870,851,934,900,953,893,849,716,724,594,639,663,677,651,641,585,520,486,461,406,417,443,455,,,,,,,,,,,,,,,,,,,,,,,,,,,,,,,,,,,,,,,,,,,,,,,,,,,,,,,,,,,,,,,,,,,,,,,,,,,,,,,,,,,,,,,,,,,,,
waveIn,3,9,213,219,272,280,314,256,269,215,225,265,262,252,255,240,150,141,130,127,145,152,202,281,282,289,286,275,214,222,270,263,344,336,325,278,325,247,245,248,241,174,148,165,231,240,307,343,394,383,409,381,344,286,267,218,205,229,224,230,360,360,376,388,383,265,255,245,247,238,244,245,208,273,301,318,336,392,348,337,408,389,341,334,326,290,288,287,278,267,158,152,135,143,170,197,216,240,234,254,270,257,250,247,226,186,226,289,378,414,514,567,641,634,631,629,696,710,717,750,787,767,682,730,717,677,637,661,592,594,571,512,485,444,475,487,498,,,,,,,,,,,,,,,,,,,,,,,,,,,,,,,,,,,,,,,,,,,,,,,,,,,,,,,,,,,,,,,,,,,,,,,,,,,,,,,,,,,,,,,,,,,,,,,,,,,,,,,,,,,
doubleTap,3,0,370,345,276,285,314,336,343,347,351,311,294,304,378,376,411,471,528,527,564,623,577,637,711,687,636,673,573,524,609,736,746,867,890,926,828,908,805,809,827,968,927,1016,1101,1118,1023,1030,1002,852,717,708,651,536,534,506,553,520,503,561,567,478,437,496,433,483,472,469,407,360,268,313,347,367,371,365,308,279,259,254,242,301,309,321,317,339,294,306,285,315,297,296,275,301,244,235,298,284,244,236,265,281,304,,,,,,,,,,,,,,,,,,,,,,,,,,,,,,,,,,,,,,,,,,,,,,,,,,,,,,,,,,,,,,,,,,,,,,,,,,,,,,,,,,,,,,,,,,,,,,,,,,,,,,,,,,,,,,,,,,,,,,,,,,,,,,,,,,,,,,,,,,,,,
doubleTap,3,1,195,219,226,240,243,254,235,278,293,306,359,347,300,283,280,200,215,240,271,306,342,353,353,412,459,441,571,604,702,804,916,853,898,922,894,852,890,924,944,915,976,979,971,912,860,746,693,564,471,501,463,441,434,399,323,398,419,413,429,447,440,415,474,426,406,340,387,307,319,315,304,248,279,249,257,237,222,298,303,304,329,356,262,311,311,280,251,262,191,185,231,227,252,319,340,309,309,,,,,,,,,,,,,,,,,,,,,,,,,,,,,,,,,,,,,,,,,,,,,,,,,,,,,,,,,,,,,,,,,,,,,,,,,,,,,,,,,,,,,,,,,,,,,,,,,,,,,,,,,,,,,,,,,,,,,,,,,,,,,,,,,,,,,,,,,,,,,,,,,
doubleTap,3,2,209,158,155,162,162,184,180,186,169,165,193,215,328,341,359,345,342,239,250,242,255,264,289,382,453,502,570,646,646,632,657,642,561,560,544,521,675,774,806,884,885,790,819,860,913,1022,1020,965,959,897,739,830,805,732,738,728,560,567,510,392,448,430,354,371,309,280,300,336,322,319,259,303,293,284,340,355,318,290,308,264,248,261,265,252,281,294,270,272,293,272,275,274,288,279,266,246,263,245,255,243,266,261,261,238,276,284,396,442,519,533,543,471,441,367,574,800,868,936,970,894,737,775,837,896,993,1093,1098,1012,928,797,666,528,508,493,513,415,381,396,424,396,455,462,413,415,467,465,472,485,506,468,449,459,466,416,383,419,398,379,391,385,350,354,343,316,301,240,221,270,332,331,319,348,321,306,306,,,,,,,,,,,,,,,,,,,,,,,,,,,,,,,,,,,,,,,,,,,,,,,,,,,,,,,,,,,,,,,,,,,
doubleTap,3,3,527,558,541,488,423,495,500,566,563,553,566,574,548,639,672,619,665,635,586,620,689,651,744,762,699,688,718,703,701,834,830,868,832,799,709,668,572,516,520,575,736,810,903,934,973,915,858,807,840,832,916,1048,1118,1106,1100,995,957,848,846,785,754,608,595,494,416,547,572,578,582,700,603,547,564,582,410,434,437,389,374,400,362,346,331,369,351,349,354,355,409,442,463,468,505,453,412,,,,,,,,,,,,,,,,,,,,,,,,,,,,,,,,,,,,,,,,,,,,,,,,,,,,,,,,,,,,,,,,,,,,,,,,,,,,,,,,,,,,,,,,,,,,,,,,,,,,,,,,,,,,,,,,,,,,,,,,,,,,,,,,,,,,,,,,,,,,,,,,,,,
doubleTap,3,4,415,373,398,313,309,312,398,531,638,637,680,668,598,544,617,678,766,823,928,912,886,878,853,824,839,990,1025,1090,1086,1157,1018,916,800,713,542,490,525,522,509,570,554,525,547,520,475,551,545,507,524,500,406,374,424,406,473,480,488,427,472,440,445,447,471,535,554,,,,,,,,,,,,,,,,,,,,,,,,,,,,,,,,,,,,,,,,,,,,,,,,,,,,,,,,,,,,,,,,,,,,,,,,,,,,,,,,,,,,,,,,,,,,,,,,,,,,,,,,,,,,,,,,,,,,,,,,,,,,,,,,,,,,,,,,,,,,,,,,,,,,,,,,,,,,,,,,,,,,,,,,,,,,,,,,,
doubleTap,3,5,300,348,345,384,357,394,580,654,724,756,794,812,824,828,840,858,789,844,925,971,967,1045,1108,1054,1046,1135,1154,1104,1173,1163,1028,909,808,659,612,645,601,620,600,564,583,544,563,514,493,440,458,350,350,377,393,387,375,380,356,285,337,350,338,349,363,314,327,332,333,327,328,317,296,272,247,228,195,191,255,,,,,,,,,,,,,,,,,,,,,,,,,,,,,,,,,,,,,,,,,,,,,,,,,,,,,,,,,,,,,,,,,,,,,,,,,,,,,,,,,,,,,,,,,,,,,,,,,,,,,,,,,,,,,,,,,,,,,,,,,,,,,,,,,,,,,,,,,,,,,,,,,,,,,,,,,,,,,,,,,,,,,,,
doubleTap,3,6,150,154,153,167,162,180,178,180,182,216,211,213,264,294,354,357,406,477,513,549,593,681,701,775,895,940,929,1022,1098,1046,1063,1049,1010,1035,1059,1145,1150,1141,986,866,679,612,537,528,605,563,644,573,578,513,493,366,372,363,387,396,437,417,379,386,470,443,439,493,466,599,653,682,651,650,546,504,489,583,616,549,534,655,694,774,845,854,805,750,632,580,694,691,790,835,870,833,808,722,785,731,707,733,763,702,774,774,769,767,775,769,752,763,748,746,782,794,791,822,879,802,778,778,811,784,821,851,863,792,764,751,757,734,790,748,703,689,647,515,514,515,482,526,648,831,967,1042,1050,1002,888,750,686,695,735,745,833,951,1002,1021,1048,1030,939,924,834,833,754,662,556,608,642,667,699,718,808,730,756,735,781,684,714,769,791,873,877,861,766,742,643,722,711,713,822,809,710,744,810,770,740,751,741,799,803,801,845,826,749,727,717,714,752,841,800,838,862,790,729,776,793,851,1002,1001,1084,1031,942,763,781,639,702,733,881,923,1059,1085,1104,1025,966,798,862,776,746,757,737,539,522,630,542,
doubleTap,3,7,274,295,275,393,459,473,490,557,565,574,665,713,807,804,863,796,796,674,614,476,474,459,515,534,554,696,748,815,842,837,833,747,621,678,841,866,942,1011,1009,899,838,892,818,749,728,695,492,484,504,471,443,482,488,451,467,406,414,375,411,398,445,366,389,328,351,395,460,438,438,441,395,446,447,460,426,433,538,540,577,599,,,,,,,,,,,,,,,,,,,,,,,,,,,,,,,,,,,,,,,,,,,,,,,,,,,,,,,,,,,,,,,,,,,,,,,,,,,,,,,,,,,,,,,,,,,,,,,,,,,,,,,,,,,,,,,,,,,,,,,,,,,,,,,,,,,,,,,,,,,,,,,,,,,,,,,,,,,,,,,,,,
doubleTap,3,8,205,197,177,257,279,315,321,359,344,381,433,490,553,568,586,574,673,624,641,698,768,753,784,811,810,844,939,1043,1056,1078,1063,951,816,789,839,883,900,912,943,847,747,692,676,564,538,462,409,393,399,327,297,310,335,331,313,333,313,329,309,356,353,460,505,570,549,595,635,645,644,680,657,694,802,821,836,860,835,839,928,979,1094,1135,1127,1140,1119,1034,,,,,,,,,,,,,,,,,,,,,,,,,,,,,,,,,,,,,,,,,,,,,,,,,,,,,,,,,,,,,,,,,,,,,,,,,,,,,,,,,,,,,,,,,,,,,,,,,,,,,,,,,,,,,,,,,,,,,,,,,,,,,,,,,,,,,,,,,,,,,,,,,,,,,,,,,,,,
doubleTap,3,9,456,512,585,613,652,674,659,672,739,715,626,734,705,666,709,742,708,718,796,811,909,909,932,875,837,689,676,638,590,716,745,839,929,1002,1041,1091,1021,982,896,812,787,813,873,947,961,947,894,857,854,781,748,797,694,586,661,607,499,515,573,462,494,496,511,535,511,475,547,661,588,594,616,549,325,312,363,407,482,497,522,507,461,368,334,362,321,287,294,303,,,,,,,,,,,,,,,,,,,,,,,,,,,,,,,,,,,,,,,,,,,,,,,,,,,,,,,,,,,,,,,,,,,,,,,,,,,,,,,,,,,,,,,,,,,,,,,,,,,,,,,,,,,,,,,,,,,,,,,,,,,,,,,,,,,,,,,,,,,,,,,,,,,,,,,,,,
fist,4,0,136,143,164,167,134,141,149,148,152,144,133,145,127,119,133,134,125,129,133,115,114,106,110,104,109,111,125,121,123,125,141,120,115,116,111,104,103,104,114,138,125,157,156,151,139,166,245,269,331,360,358,300,284,220,187,179,188,184,179,158,151,130,132,134,145,159,169,193,204,241,250,269,327,339,426,422,487,505,535,485,510,459,439,434,431,481,543,578,584,693,737,698,654,619,472,320,338,359,524,667,938,1086,1144,1151,1113,950,801,727,805,803,795,898,881,826,834,835,675,706,704,669,681,735,702,575,558,456,415,418,521,540,527,514,565,466,445,,,,,,,,,,,,,,,,,,,,,,,,,,,,,,,,,,,,,,,,,,,,,,,,,,,,,,,,,,,,,,,,,,,,,,,,,,,,,,,,,,,,,,,,,,,,,,,,,,,,,,,,,,,
fist,4,1,441,434,453,436,418,357,406,407,378,375,404,376,363,380,376,369,484,544,528,540,515,410,288,298,279,350,344,341,338,347,286,312,342,387,496,532,565,616,641,593,608,597,590,576,559,596,606,605,596,720,743,752,740,744,666,585,534,523,551,519,499,606,724,779,779,906,840,847,938,987,961,1008,1068,1040,1000,946,958,841,754,768,916,978,956,982,954,872,715,715,669,703,618,,,,,,,,,,,,,,,,,,,,,,,,,,,,,,,,,,,,,,,,,,,,,,,,,,,,,,,,,,,,,,,,,,,,,,,,,,,,,,,,,,,,,,,,,,,,,,,,,,,,,,,,,,,,,,,,,,,,,,,,,,,,,,,,,,,,,,,,,,,,,,,,,,,,,,,
fist,4,2,122,129,148,141,137,139,150,141,127,149,146,138,137,143,124,120,111,101,108,97,88,104,107,105,105,113,106,105,92,119,116,120,120,137,123,118,133,135,117,114,135,120,116,124,124,96,96,117,116,117,138,138,122,117,169,163,155,159,160,124,132,134,133,142,121,104,112,110,94,102,98,83,77,97,98,115,128,205,216,313,328,347,320,359,294,321,340,368,351,368,334,299,292,261,246,244,249,232,262,257,334,517,642,701,719,707,624,596,549,549,540,589,567,531,540,617,559,512,554,566,490,469,439,387,313,372,567,685,881,981,988,967,1168,1086,1076,1072,1016,802,724,622,613,602,417,404,387,298,258,222,248,204,189,171,162,107,105,97,90,107,122,,,,,,,,,,,,,,,,,,,,,,,,,,,,,,,,,,,,,,,,,,,,,,,,,,,,,,,,,,,,,,,,,,,,,,,,,,,,,,,,,,,
fist,4,3,54,65,62,61,56,62,54,51,52,53,52,47,49,46,45,51,51,51,50,58,49,48,49,50,47,56,65,78,83,87,112,229,261,282,328,350,306,304,334,300,271,263,260,211,224,245,283,279,303,291,274,245,233,272,338,367,356,419,419,478,497,511,505,522,481,497,530,573,579,581,566,559,494,494,459,533,558,552,525,571,496,459,497,567,529,580,627,640,625,637,574,502,457,423,438,519,663,749,802,780,881,868,830,825,824,664,541,468,328,291,266,241,240,188,176,153,147,85,59,51,46,40,39,34,29,,,,,,,,,,,,,,,,,,,,,,,,,,,,,,,,,,,,,,,,,,,,,,,,,,,,,,,,,,,,,,,,,,,,,,,,,,,,,,,,,,,,,,,,,,,,,,,,,,,,,,,,,,,,,,,,,,,,,
fist,4,4,74,67,85,122,152,169,176,226,251,270,350,374,349,384,368,287,258,258,204,202,204,215,281,299,314,354,382,487,498,516,518,515,415,408,408,202,204,381,368,350,353,325,342,397,429,403,395,400,349,293,282,333,401,395,413,480,536,581,648,657,617,581,524,494,500,609,628,636,645,658,609,573,600,562,561,525,560,556,545,561,577,574,520,546,649,749,770,805,830,766,666,642,608,603,589,573,624,731,759,783,885,901,822,853,915,821,758,752,720,588,562,531,511,395,356,349,344,303,361,344,340,311,303,187,170,180,,,,,,,,,,,,,,,,,,,,,,,,,,,,,,,,,,,,,,,,,,,,,,,,,,,,,,,,,,,,,,,,,,,,,,,,,,,,,,,,,,,,,,,,,,,,,,,,,,,,,,,,,,,,,,,,,,,,
fist,4,5,143,160,167,174,171,193,373,378,415,493,528,431,447,430,376,312,293,281,254,199,207,229,345,355,366,353,367,266,263,249,250,237,226,230,233,241,224,266,271,300,323,322,401,415,409,413,473,398,391,425,401,518,555,587,566,617,495,466,435,489,527,564,580,619,595,522,495,500,440,415,435,398,325,306,309,249,230,237,230,220,427,647,801,880,1059,1076,1035,999,1045,933,1074,1051,1016,1111,1096,915,909,949,816,754,730,685,584,528,536,511,501,517,,,,,,,,,,,,,,,,,,,,,,,,,,,,,,,,,,,,,,,,,,,,,,,,,,,,,,,,,,,,,,,,,,,,,,,,,,,,,,,,,,,,,,,,,,,,,,,,,,,,,,,,,,,,,,,,,,,,,,,,,,,,,,,,,,,,,,
fist,4,6,271,288,250,256,263,204,196,225,218,208,199,208,185,190,233,248,248,269,296,391,507,520,525,535,473,372,348,328,299,319,297,304,313,334,287,315,457,504,510,525,505,431,495,514,525,609,675,681,731,758,723,725,661,684,692,753,689,695,634,596,473,503,479,407,369,452,556,721,794,825,899,974,889,995,1097,1032,941,910,739,539,480,350,341,292,256,259,335,348,352,361,364,338,317,383,379,373,294,296,185,256,247,309,421,424,,,,,,,,,,,,,,,,,,,,,,,,,,,,,,,,,,,,,,,,,,,,,,,,,,,,,,,,,,,,,,,,,,,,,,,,,,,,,,,,,,,,,,,,,,,,,,,,,,,,,,,,,,,,,,,,,,,,,,,,,,,,,,,,,,,,,,,,,,
fist,4,7,64,52,65,66,71,92,101,96,98,94,103,92,109,168,214,219,247,242,219,188,196,218,230,226,218,196,155,140,129,125,135,172,235,244,258,293,298,273,290,289,275,261,290,293,351,376,505,627,700,766,768,768,679,634,533,536,511,523,492,555,688,732,731,755,714,580,433,382,304,422,633,731,814,1018,1102,1029,993,1047,934,802,759,730,609,482,475,490,525,480,476,422,392,351,331,325,318,296,283,262,,,,,,,,,,,,,,,,,,,,,,,,,,,,,,,,,,,,,,,,,,,,,,,,,,,,,,,,,,,,,,,,,,,,,,,,,,,,,,,,,,,,,,,,,,,,,,,,,,,,,,,,,,,,,,,,,,,,,,,,,,,,,,,,,,,,,,,,,,,,,,,,
fist,4,8,157,151,110,104,103,120,117,106,102,99,79,138,141,143,146,147,96,96,88,81,66,65,53,64,73,80,87,91,86,93,162,176,179,237,325,372,381,431,449,434,393,405,380,348,315,291,268,275,275,258,277,369,513,528,541,669,640,531,519,620,588,602,631,637,565,495,497,503,527,493,521,609,698,696,734,695,698,592,587,575,585,472,497,704,782,849,992,1148,1046,1028,1018,955,797,777,706,662,600,517,487,519,518,484,468,486,437,413,365,412,547,547,,,,,,,,,,,,,,,,,,,,,,,,,,,,,,,,,,,,,,,,,,,,,,,,,,,,,,,,,,,,,,,,,,,,,,,,,,,,,,,,,,,,,,,,,,,,,,,,,,,,,,,,,,,,,,,,,,,,,,,,,,,,,,,,,,,,
fist,4,9,62,58,59,66,57,60,64,60,52,52,43,36,37,44,55,55,99,183,207,217,232,226,209,227,223,216,216,186,133,131,121,110,103,144,149,165,179,188,169,176,191,191,226,239,238,244,269,238,244,250,229,211,239,247,282,360,381,403,395,400,436,491,468,470,507,476,415,412,447,445,440,436,434,394,317,347,392,471,609,641,659,657,619,602,592,517,473,455,271,260,263,254,239,230,140,94,74,52,45,37,33,30,30,26,27,28,34,32,,,,,,,,,,,,,,,,,,,,,,,,,,,,,,,,,,,,,,,,,,,,,,,,,,,,,,,,,,,,,,,,,,,,,,,,,,,,,,,,,,,,,,,,,,,,,,,,,,,,,,,,,,,,,,,,,,,,,,,,,,,,,,,,,,,,,,
fingersSpread,4,0,32,30,29,35,37,38,38,36,38,37,45,47,86,134,328,372,411,648,796,872,876,894,912,817,730,783,865,739,779,841,903,927,910,999,1038,1004,1063,1205,1187,1151,1182,1128,1149,1195,1229,1183,1125,1007,939,897,893,958,964,907,914,997,1004,983,994,951,874,798,776,745,693,663,601,560,595,604,608,612,579,459,403,275,186,127,98,78,68,60,54,41,44,41,41,34,36,35,39,39,38,37,,,,,,,,,,,,,,,,,,,,,,,,,,,,,,,,,,,,,,,,,,,,,,,,,,,,,,,,,,,,,,,,,,,,,,,,,,,,,,,,,,,,,,,,,,,,,,,,,,,,,,,,,,,,,,,,,,,,,,,,,,,,,,,,,,,,,,,,,,,,,,,,,,,,
fingersSpread,4,1,380,444,517,567,580,558,677,688,689,734,825,751,790,820,818,807,879,1000,1054,1067,1068,1109,1043,1050,1060,1059,997,985,921,986,999,1020,998,1003,970,1019,1008,1048,1031,1052,1057,1069,1028,1121,1067,1051,1078,1110,1057,1099,1039,994,937,884,868,942,956,994,1123,1068,1065,1035,978,844,875,854,860,846,869,874,824,801,862,822,815,744,674,560,484,483,554,618,663,686,575,494,386,253,111,108,78,56,42,35,30,31,30,31,31,31,31,30,,,,,,,,,,,,,,,,,,,,,,,,,,,,,,,,,,,,,,,,,,,,,,,,,,,,,,,,,,,,,,,,,,,,,,,,,,,,,,,,,,,,,,,,,,,,,,,,,,,,,,,,,,,,,,,,,,,,,,,,,,,,,,,,,,,,,,,,,,,,
fingersSpread,4,2,23,23,25,23,23,24,24,22,25,22,23,21,22,23,23,22,24,23,21,23,27,27,26,26,25,21,20,20,21,31,243,300,478,576,603,678,742,734,869,914,881,901,951,877,999,996,975,939,939,899,936,1007,1030,1004,1051,1068,1035,1015,1027,888,848,852,869,892,962,1017,1108,1146,1137,1072,1076,924,835,877,945,916,972,1015,998,963,995,988,987,977,1015,923,888,790,796,764,822,995,1043,978,968,977,789,735,711,634,493,510,672,661,668,670,600,361,325,243,186,146,117,165,162,163,137,135,60,52,43,44,40,91,94,98,95,,,,,,,,,,,,,,,,,,,,,,,,,,,,,,,,,,,,,,,,,,,,,,,,,,,,,,,,,,,,,,,,,,,,,,,,,,,,,,,,,,,,,,,,,,,,,,,,,,,,,,,,,,,,,,,,,,,
fingersSpread,4,3,23,25,24,21,23,24,23,24,24,22,20,20,18,19,25,25,25,26,26,27,38,41,40,51,62,171,180,228,236,363,589,680,691,717,759,672,710,777,822,797,790,796,781,817,846,871,837,861,795,772,816,888,908,964,1122,1137,1172,1298,1370,1314,1305,1353,1315,1353,1289,1328,1275,1216,1055,1076,1015,1061,1018,1071,1096,1122,1111,1164,1170,1167,1114,1013,987,1047,997,995,920,796,575,502,363,319,302,241,152,122,116,110,90,79,63,56,39,33,28,27,29,30,29,31,31,31,31,27,26,26,26,26,25,24,25,27,,,,,,,,,,,,,,,,,,,,,,,,,,,,,,,,,,,,,,,,,,,,,,,,,,,,,,,,,,,,,,,,,,,,,,,,,,,,,,,,,,,,,,,,,,,,,,,,,,,,,,,,,,,,,,,,,,,,,,,,
fingersSpread,4,4,25,24,22,18,22,25,25,27,29,28,24,23,22,23,25,26,29,30,28,29,28,28,32,82,198,350,456,503,551,630,679,631,679,756,722,686,769,798,780,790,880,883,883,877,920,980,964,1018,1056,1130,1095,1149,1117,1112,1080,1028,1062,1019,1116,1107,1114,1119,1181,1173,1225,1245,1187,1197,1139,1051,1023,1055,1128,1086,1084,1084,1069,959,953,908,946,889,853,815,865,736,681,598,708,786,780,780,763,601,297,227,134,115,105,59,48,42,37,31,30,27,26,28,29,23,,,,,,,,,,,,,,,,,,,,,,,,,,,,,,,,,,,,,,,,,,,,,,,,,,,,,,,,,,,,,,,,,,,,,,,,,,,,,,,,,,,,,,,,,,,,,,,,,,,,,,,,,,,,,,,,,,,,,,,,,,,,,,,,,,,,
fingersSpread,4,5,25,36,35,38,36,35,27,26,24,25,26,22,21,23,21,22,22,22,21,20,18,21,21,21,24,26,24,25,34,43,44,50,125,151,216,287,401,486,561,558,576,688,688,687,781,867,907,961,934,896,854,737,737,826,947,1076,1189,1198,1218,1190,1095,1084,1136,1165,1130,1243,1320,1328,1270,1318,1330,1171,1116,1204,1191,1057,1040,1091,1012,1049,1124,1153,1118,1134,1029,875,828,730,684,654,643,588,509,347,262,221,180,156,127,97,61,55,50,47,45,43,39,29,27,26,23,23,21,31,31,33,35,36,31,69,,,,,,,,,,,,,,,,,,,,,,,,,,,,,,,,,,,,,,,,,,,,,,,,,,,,,,,,,,,,,,,,,,,,,,,,,,,,,,,,,,,,,,,,,,,,,,,,,,,,,,,,,,,,,,,,,,,,,,,,,,
fingersSpread,4,6,20,21,20,22,22,20,21,23,24,27,26,26,24,23,22,22,22,22,24,23,23,25,24,26,74,170,217,319,380,402,536,608,634,709,730,691,695,732,803,908,989,1020,1073,1029,983,969,956,1015,1024,1056,1079,1109,1038,1110,1154,1161,1144,1188,1218,1154,1141,1125,1056,978,1075,1075,1105,1178,1144,1107,1083,1095,1020,1010,1048,974,948,898,851,651,626,488,465,503,515,500,484,417,276,128,71,67,46,35,30,29,28,28,25,26,27,25,24,24,23,21,24,24,25,25,25,24,24,24,25,23,22,22,22,19,22,23,26,29,31,29,31,27,23,22,23,20,24,25,25,,,,,,,,,,,,,,,,,,,,,,,,,,,,,,,,,,,,,,,,,,,,,,,,,,,,,,,,,,,,,,,,,,,,,,,,,,,,,,,,,,,,,,,,,,,,,,,,,,,,,,,,,,,
fingersSpread,4,7,26,25,25,26,22,22,23,25,24,26,24,27,26,25,23,39,66,69,74,79,85,67,67,95,100,99,118,320,430,537,631,750,726,790,896,1028,964,1061,1094,1068,942,1046,1067,1076,1105,1126,1114,1104,1069,1146,1227,1212,1182,1203,1119,1058,1097,1099,1044,1109,1194,1203,1223,1235,1197,1107,1097,1031,1041,944,898,769,760,677,596,512,470,593,698,795,809,804,651,480,260,138,113,81,59,58,52,50,50,47,41,42,41,37,38,40,36,35,35,34,34,36,,,,,,,,,,,,,,,,,,,,,,,,,,,,,,,,,,,,,,,,,,,,,,,,,,,,,,,,,,,,,,,,,,,,,,,,,,,,,,,,,,,,,,,,,,,,,,,,,,,,,,,,,,,,,,,,,,,,,,,,,,,,,,,,,,,,,,,,
fingersSpread,4,8,21,20,22,23,24,25,27,24,23,21,19,19,21,25,42,54,90,93,92,93,97,76,75,84,77,82,91,92,186,191,187,188,197,109,102,97,79,48,67,95,121,186,207,219,227,244,270,383,393,454,469,469,495,543,539,574,599,597,644,777,858,983,995,1049,1030,1056,1089,1145,1149,1213,1204,1249,1279,1291,1298,1286,1193,1170,1130,1050,1065,1027,1022,1034,1073,1116,1134,1107,1078,1096,1004,956,955,894,811,787,737,635,682,614,550,533,474,370,220,165,117,97,64,51,42,33,31,30,32,30,29,29,29,26,25,25,23,25,24,27,27,27,26,27,27,33,36,36,36,32,28,25,,,,,,,,,,,,,,,,,,,,,,,,,,,,,,,,,,,,,,,,,,,,,,,,,,,,,,,,,,,,,,,,,,,,,,,,,,,,,,,,,,,,,,,,,,,,,,,,,,,,,,,,
fingersSpread,4,9,25,24,25,25,26,23,23,26,25,23,24,25,21,22,24,23,23,22,24,21,21,20,21,19,21,20,21,22,21,54,115,265,345,478,628,704,788,836,845,925,1003,1034,1049,1053,959,865,885,903,925,1007,1088,1073,1011,982,1012,1041,961,1044,1088,997,974,1062,1081,1145,1175,1146,1153,1102,1021,1010,985,1032,1032,1046,1043,1070,948,932,930,853,784,769,708,565,534,456,323,269,235,180,112,100,86,83,79,59,57,53,48,44,39,31,36,40,39,35,35,30,23,25,27,25,28,27,26,,,,,,,,,,,,,,,,,,,,,,,,,,,,,,,,,,,,,,,,,,,,,,,,,,,,,,,,,,,,,,,,,,,,,,,,,,,,,,,,,,,,,,,,,,,,,,,,,,,,,,,,,,,,,,,,,,,,,,,,,,,,,,,
waveOut,4,0,313,297,317,348,293,330,324,333,382,429,405,450,475,453,435,524,619,721,780,1007,1043,1046,1059,1067,900,912,971,975,1096,1099,1099,524,619,1111,1093,1112,1085,1193,1230,1275,1212,1187,1092,1081,1117,1284,1238,1282,1298,1220,1117,1149,1140,1076,1020,1026,1011,976,949,969,905,913,899,858,803,783,745,693,695,669,596,455,412,408,390,357,334,899,858,803,284,146,101,223,224,231,231,231,115,188,188,185,186,180,102,94,91,82,,,,,,,,,,,,,,,,,,,,,,,,,,,,,,,,,,,,,,,,,,,,,,,,,,,,,,,,,,,,,,,,,,,,,,,,,,,,,,,,,,,,,,,,,,,,,,,,,,,,,,,,,,,,,,,,,,,,,,,,,,,,,,,,,,,,,,,,,,,,,,,,
waveOut,4,1,59,55,55,59,73,85,92,94,96,170,183,189,247,294,270,291,338,361,407,423,449,438,440,422,417,427,619,701,713,783,932,926,965,1050,1111,1099,1203,1179,1171,1103,1090,966,983,997,1045,1125,1169,1160,1112,1146,1049,1067,1066,1128,1041,1050,1007,967,901,938,889,850,871,813,749,694,622,518,492,465,455,467,473,460,430,374,219,157,110,100,66,42,37,48,83,122,126,131,129,118,79,73,87,84,76,,,,,,,,,,,,,,,,,,,,,,,,,,,,,,,,,,,,,,,,,,,,,,,,,,,,,,,,,,,,,,,,,,,,,,,,,,,,,,,,,,,,,,,,,,,,,,,,,,,,,,,,,,,,,,,,,,,,,,,,,,,,,,,,,,,,,,,,,,,,,,,,,,,
waveOut,4,2,29,47,46,47,46,47,29,29,26,33,36,37,51,53,52,62,80,77,86,87,81,76,85,85,85,85,75,66,67,238,281,355,406,474,539,592,673,745,756,780,837,772,929,1013,1073,1027,1101,1061,1030,1077,1096,1181,1176,1191,1185,1254,1241,1209,1190,1160,1205,1184,1112,1157,1115,1065,982,1045,1016,997,937,915,925,941,918,901,925,861,753,828,779,694,657,680,555,529,514,469,363,247,243,236,225,223,196,87,75,73,75,71,67,67,59,33,33,29,28,26,36,36,40,41,40,33,31,32,34,35,37,38,36,32,,,,,,,,,,,,,,,,,,,,,,,,,,,,,,,,,,,,,,,,,,,,,,,,,,,,,,,,,,,,,,,,,,,,,,,,,,,,,,,,,,,,,,,,,,,,,,,,,,,,,,,,,,,,,,,,,,,,,,,,
waveOut,4,3,32,35,36,43,42,42,41,39,33,35,38,34,36,37,35,33,36,35,32,31,33,30,30,34,34,29,28,28,21,26,28,27,58,58,118,119,143,178,191,173,291,314,314,372,436,455,500,643,643,708,790,814,775,793,767,806,898,883,948,990,938,852,864,804,799,808,816,878,953,956,964,1020,969,1007,941,878,830,851,786,769,777,721,704,673,705,689,665,583,504,468,439,413,389,293,225,129,101,74,52,38,37,34,35,32,36,33,35,39,39,35,35,33,28,26,25,23,25,25,30,32,32,32,32,,,,,,,,,,,,,,,,,,,,,,,,,,,,,,,,,,,,,,,,,,,,,,,,,,,,,,,,,,,,,,,,,,,,,,,,,,,,,,,,,,,,,,,,,,,,,,,,,,,,,,,,,,,,,,,,,,,,,,,
waveOut,4,4,23,21,20,21,23,25,29,31,30,31,28,24,23,23,24,25,24,28,30,30,34,60,100,123,193,271,312,314,373,373,486,544,569,594,616,602,638,670,781,841,859,855,917,847,876,827,951,1002,992,921,965,868,935,912,955,912,899,668,702,679,772,735,791,872,836,744,704,680,551,558,554,543,459,375,318,318,301,283,278,262,149,128,116,109,66,56,46,42,38,35,37,41,43,44,44,40,44,43,43,43,41,32,33,31,28,31,,,,,,,,,,,,,,,,,,,,,,,,,,,,,,,,,,,,,,,,,,,,,,,,,,,,,,,,,,,,,,,,,,,,,,,,,,,,,,,,,,,,,,,,,,,,,,,,,,,,,,,,,,,,,,,,,,,,,,,,,,,,,,,,,,,,,,,,
waveOut,4,5,20,21,25,24,24,25,25,22,21,23,21,19,23,23,22,25,26,29,90,268,286,296,356,501,500,583,613,616,538,537,695,685,714,739,768,580,601,660,674,665,726,800,815,851,859,875,932,970,947,950,993,976,916,942,958,903,858,873,841,793,764,708,635,673,636,568,521,523,459,473,492,473,397,252,189,100,72,57,55,55,52,47,46,43,34,31,34,47,47,49,48,44,34,32,28,29,27,28,29,30,31,31,25,25,26,25,27,,,,,,,,,,,,,,,,,,,,,,,,,,,,,,,,,,,,,,,,,,,,,,,,,,,,,,,,,,,,,,,,,,,,,,,,,,,,,,,,,,,,,,,,,,,,,,,,,,,,,,,,,,,,,,,,,,,,,,,,,,,,,,,,,,,,,,,
waveOut,4,6,24,25,25,23,23,23,22,23,23,26,27,27,27,27,23,21,22,22,21,23,24,22,22,22,20,21,22,22,22,22,21,23,21,26,26,26,52,152,248,276,292,303,292,237,247,292,295,324,331,387,353,418,425,451,480,509,473,475,490,529,620,763,907,926,877,872,804,671,681,810,822,845,895,970,982,1000,952,1028,965,940,898,903,780,769,662,679,675,658,647,723,660,683,689,761,714,783,784,805,699,676,573,520,415,394,324,304,257,184,153,128,93,73,58,46,39,30,38,43,43,47,48,43,40,45,41,39,38,38,31,35,33,32,32,31,27,30,28,29,32,31,30,35,34,31,34,33,30,28,28,26,31,27,,,,,,,,,,,,,,,,,,,,,,,,,,,,,,,,,,,,,,,,,,,,,,,,,,,,,,,,,,,,,,,,,,,,,,,,,,,,,,,,,,,,,,,,,,
waveOut,4,7,29,28,27,26,28,26,29,30,31,31,32,31,30,29,26,26,26,25,26,27,28,26,26,26,25,26,27,27,53,86,143,162,178,212,230,296,304,329,348,353,311,356,376,385,400,448,446,476,520,555,546,579,602,542,493,458,381,309,327,315,375,397,469,498,602,690,685,652,666,607,464,463,478,418,379,370,354,357,348,339,344,345,231,223,211,185,162,299,376,377,375,374,265,117,93,84,71,45,52,50,48,49,41,29,29,28,23,25,25,28,29,31,34,35,36,37,37,40,39,38,38,35,28,30,26,29,31,,,,,,,,,,,,,,,,,,,,,,,,,,,,,,,,,,,,,,,,,,,,,,,,,,,,,,,,,,,,,,,,,,,,,,,,,,,,,,,,,,,,,,,,,,,,,,,,,,,,,,,,,,,,,,,,,,,
waveOut,4,8,20,22,22,23,26,28,28,29,29,26,24,25,24,21,22,24,22,22,23,23,24,23,28,29,31,29,47,67,75,162,363,497,594,627,642,659,694,683,723,746,821,880,902,968,1062,1029,1079,1073,1034,943,964,885,898,866,885,897,856,901,1020,1047,981,950,925,808,803,822,900,946,928,916,910,845,698,697,613,527,484,505,449,416,410,343,248,222,206,155,112,106,75,71,53,46,46,44,40,37,33,29,28,31,31,31,30,30,27,28,30,31,31,33,33,32,,,,,,,,,,,,,,,,,,,,,,,,,,,,,,,,,,,,,,,,,,,,,,,,,,,,,,,,,,,,,,,,,,,,,,,,,,,,,,,,,,,,,,,,,,,,,,,,,,,,,,,,,,,,,,,,,,,,,,,,,,,,,,,,,,
waveOut,4,9,27,26,29,28,26,25,25,22,24,26,25,26,26,25,29,28,27,31,31,26,27,25,20,21,23,23,25,30,42,42,83,90,130,158,248,263,282,353,361,383,445,505,476,493,482,583,600,765,795,817,903,969,907,936,959,867,895,956,980,1042,1065,987,945,947,881,841,851,914,858,886,837,840,678,653,631,682,750,848,870,915,860,801,750,737,676,706,665,588,533,386,304,165,122,101,63,46,41,37,34,33,35,37,36,35,33,30,27,26,27,29,28,31,31,29,29,30,30,29,31,28,26,24,26,27,28,29,,,,,,,,,,,,,,,,,,,,,,,,,,,,,,,,,,,,,,,,,,,,,,,,,,,,,,,,,,,,,,,,,,,,,,,,,,,,,,,,,,,,,,,,,,,,,,,,,,,,,,,,,,,,,,,,,,,,
waveIn,4,0,24,26,29,25,26,25,24,24,25,25,24,23,23,24,23,29,29,28,27,28,22,23,28,28,30,34,34,31,41,41,46,48,50,43,77,109,121,126,136,167,166,170,180,205,208,228,267,289,289,77,109,327,327,346,362,417,426,448,552,539,495,455,418,250,291,279,285,286,257,165,147,119,108,91,66,56,51,83,115,116,120,123,113,80,101,108,112,103,115,97,86,74,77,57,52,46,44,40,42,44,44,44,32,29,26,26,24,25,23,21,,,,,,,,,,,,,,,,,,,,,,,,,,,,,,,,,,,,,,,,,,,,,,,,,,,,,,,,,,,,,,,,,,,,,,,,,,,,,,,,,,,,,,,,,,,,,,,,,,,,,,,,,,,,,,,,,,,,,,,,,,,,,,,,,,,,
waveIn,4,1,29,25,32,31,32,33,32,37,39,48,49,52,49,57,62,63,65,75,72,66,66,72,62,84,88,95,92,105,92,98,119,135,167,194,317,374,413,427,450,466,427,417,412,419,370,408,425,437,438,451,432,440,437,420,368,377,317,288,303,290,235,223,203,100,85,79,76,98,110,114,123,125,110,92,99,107,139,140,145,140,130,96,92,93,81,71,64,59,43,42,39,30,28,47,46,47,46,46,27,26,24,25,22,21,23,25,,,,,,,,,,,,,,,,,,,,,,,,,,,,,,,,,,,,,,,,,,,,,,,,,,,,,,,,,,,,,,,,,,,,,,,,,,,,,,,,,,,,,,,,,,,,,,,,,,,,,,,,,,,,,,,,,,,,,,,,,,,,,,,,,,,,,,,,
waveIn,4,2,21,26,29,30,30,35,34,33,32,31,24,20,19,17,18,18,19,20,22,23,23,22,24,23,22,23,24,23,20,20,19,18,20,23,25,25,28,25,27,28,30,29,30,27,27,24,24,23,22,20,20,21,20,21,26,27,25,28,30,40,42,45,72,78,77,83,84,75,85,97,111,159,165,180,245,385,456,495,550,561,542,509,481,473,532,551,521,598,561,515,469,491,423,421,361,306,266,198,165,153,124,109,90,82,70,71,58,58,59,60,59,63,62,64,70,67,61,59,54,54,51,53,51,53,43,39,33,30,26,23,23,23,24,25,26,,,,,,,,,,,,,,,,,,,,,,,,,,,,,,,,,,,,,,,,,,,,,,,,,,,,,,,,,,,,,,,,,,,,,,,,,,,,,,,,,,,,,,,,,,,,,,,,,,,,,,,,,,,
waveIn,4,3,24,22,22,23,24,24,26,25,26,24,26,25,27,25,25,24,21,22,24,24,24,24,21,20,20,21,21,21,19,22,33,33,36,37,40,36,43,43,43,45,50,50,53,56,59,67,78,101,107,116,171,372,402,460,481,519,428,412,419,462,473,543,585,569,542,576,525,562,559,567,498,478,411,379,338,303,270,186,162,129,102,89,68,75,70,81,113,132,145,162,210,203,198,231,235,191,190,190,130,100,100,86,74,75,69,60,56,47,47,44,36,37,35,32,34,82,236,262,267,270,,,,,,,,,,,,,,,,,,,,,,,,,,,,,,,,,,,,,,,,,,,,,,,,,,,,,,,,,,,,,,,,,,,,,,,,,,,,,,,,,,,,,,,,,,,,,,,,,,,,,,,,,,,,,,,,,,,,,,,,,,
waveIn,4,4,317,326,350,265,260,276,285,283,302,301,283,274,268,239,211,203,189,149,88,70,53,47,43,32,32,30,36,33,39,44,50,52,55,55,55,51,49,51,52,64,84,109,120,136,169,207,233,281,282,317,376,373,382,412,420,368,391,374,400,383,399,369,385,335,319,272,261,194,157,100,92,79,78,86,87,81,88,92,90,88,115,115,112,117,124,100,97,89,86,75,74,67,59,55,53,53,51,49,34,34,37,35,37,32,30,,,,,,,,,,,,,,,,,,,,,,,,,,,,,,,,,,,,,,,,,,,,,,,,,,,,,,,,,,,,,,,,,,,,,,,,,,,,,,,,,,,,,,,,,,,,,,,,,,,,,,,,,,,,,,,,,,,,,,,,,,,,,,,,,,,,,,,,,
waveIn,4,5,23,23,22,23,22,21,21,22,22,24,23,23,23,25,23,28,28,29,27,27,23,22,22,22,22,23,23,22,22,20,22,22,23,25,28,28,33,44,44,45,48,50,47,51,55,61,63,69,83,207,226,250,270,309,296,365,435,442,472,466,471,474,506,504,559,534,516,510,486,427,397,347,303,276,294,290,280,261,244,150,131,111,98,87,82,86,95,119,118,117,131,118,117,140,142,127,121,97,63,52,46,44,40,30,29,29,28,35,37,36,37,37,33,30,32,30,31,,,,,,,,,,,,,,,,,,,,,,,,,,,,,,,,,,,,,,,,,,,,,,,,,,,,,,,,,,,,,,,,,,,,,,,,,,,,,,,,,,,,,,,,,,,,,,,,,,,,,,,,,,,,,,,,,,,,,,,,,,,,,
waveIn,4,6,20,20,22,23,22,24,22,23,23,23,21,22,22,22,25,28,28,28,27,26,24,24,23,24,23,22,23,26,23,23,23,22,22,24,24,24,26,23,22,23,24,21,22,30,33,34,35,36,36,41,52,53,56,54,51,48,54,57,61,71,75,78,89,140,194,228,322,356,447,553,605,578,573,550,511,489,502,499,451,375,301,288,350,370,352,348,331,238,185,167,166,123,109,83,98,94,99,96,99,94,100,95,96,95,81,78,72,67,69,72,78,73,76,79,70,54,53,46,31,30,29,27,27,25,28,25,25,27,27,,,,,,,,,,,,,,,,,,,,,,,,,,,,,,,,,,,,,,,,,,,,,,,,,,,,,,,,,,,,,,,,,,,,,,,,,,,,,,,,,,,,,,,,,,,,,,,,,,,,,,,,,,,,,,,,,
waveIn,4,7,28,25,29,30,29,28,29,25,26,25,23,23,23,20,22,23,23,24,24,26,26,25,25,25,22,21,22,24,24,25,26,26,26,25,25,24,22,21,22,20,19,21,19,22,21,22,24,30,31,31,34,36,37,53,138,149,150,152,156,101,87,97,99,112,178,253,306,414,498,590,622,636,589,553,627,666,725,734,740,602,513,381,354,287,251,219,191,150,136,125,88,79,72,55,87,101,104,114,144,140,134,155,155,146,156,204,346,357,366,375,353,218,241,220,193,190,171,94,79,67,56,69,71,74,73,66,,,,,,,,,,,,,,,,,,,,,,,,,,,,,,,,,,,,,,,,,,,,,,,,,,,,,,,,,,,,,,,,,,,,,,,,,,,,,,,,,,,,,,,,,,,,,,,,,,,,,,,,,,,,,,,,,,,,
waveIn,4,8,25,27,27,28,24,22,20,18,19,19,23,24,25,25,27,24,25,25,27,26,28,26,25,24,23,23,24,25,24,24,21,22,21,23,26,30,29,29,25,26,23,26,28,28,26,25,22,21,22,24,23,23,23,25,21,26,26,26,24,24,22,23,24,25,25,24,26,26,28,34,38,52,55,55,54,62,63,74,108,147,271,300,331,353,372,339,345,338,332,328,301,331,382,387,400,462,470,461,495,514,491,471,453,392,330,264,212,144,135,111,105,87,81,105,106,114,146,149,136,177,256,348,472,521,560,555,540,445,395,323,277,188,162,139,126,151,130,125,,,,,,,,,,,,,,,,,,,,,,,,,,,,,,,,,,,,,,,,,,,,,,,,,,,,,,,,,,,,,,,,,,,,,,,,,,,,,,,,,,,,,,,,,,,,,,,,,,,,,,,,
