fist,1,0,68,79,78,93,92,91,83,89,71,73,75,67,72,72,66,66,69,52,51,86,87,86,92,94,74,68,71,69,81,75,79,75,73,63,68,78,81,91,89,83,73,105,103,109,117,229,307,379,416,505,551,552,687,732,816,853,828,721,795,682,662,710,693,537,517,417,322,309,364,375,349,354,329,254,192,204,274,274,267,277,275,196,211,212,210,217,222,229,293,297,281,295,378,337,334,338,327,290,280,283,287,326,320,323,315,319,277,220,220,217,200,367,588,650,684,781,826,768,748,731,638,520,373,421,409,397,397,412,289,279,283,225,220,221,199,179,169,,,,,,,,,,,,,,,,,,,,,,,,,,,,,,,,,,,,,,,,,,,,,,,,,,,,,,,,,,,,,,,,,,,,,,,,,,,,,,,,,,,,,,,,,,,,,,,,,,,,,,,,,
fist,1,1,200,193,211,227,202,182,179,176,134,142,169,175,163,156,157,127,116,126,135,127,142,142,134,141,146,138,148,145,167,175,167,162,174,176,211,217,211,200,182,134,171,286,385,518,648,701,699,657,594,470,379,324,367,305,303,306,326,276,289,259,248,210,199,257,249,247,258,251,169,173,174,167,164,188,189,179,168,226,199,196,205,200,129,123,133,139,157,296,315,400,407,415,334,363,302,302,322,377,366,345,360,382,396,399,431,445,447,452,428,410,392,353,273,279,262,240,237,240,234,261,279,406,422,435,454,525,455,458,468,457,367,358,334,297,254,290,253,245,269,300,327,446,544,590,599,716,689,696,679,661,517,499,397,340,338,304,239,226,227,244,241,275,263,288,281,,,,,,,,,,,,,,,,,,,,,,,,,,,,,,,,,,,,,,,,,,,,,,,,,,,,,,,,,,,,,,,,,,,,,,,,,,,,,
fist,1,2,100,103,127,141,145,144,146,152,121,138,139,155,152,149,137,139,114,98,98,116,130,139,135,141,124,110,108,127,130,126,124,146,121,159,251,260,248,249,233,172,168,203,257,252,262,363,371,394,492,502,453,460,452,348,313,321,322,281,376,401,378,352,403,381,357,360,351,285,214,225,228,261,286,296,294,280,261,236,243,244,290,284,274,278,309,320,334,345,324,283,227,214,205,179,192,190,173,156,146,155,143,138,148,177,161,169,194,202,235,301,318,347,350,328,259,258,285,314,390,455,497,472,544,523,501,462,454,343,303,294,283,306,310,292,258,250,225,205,223,233,236,218,229,218,188,189,188,168,174,,,,,,,,,,,,,,,,,,,,,,,,,,,,,,,,,,,,,,,,,,,,,,,,,,,,,,,,,,,,,,,,,,,,,,,,,,,,,,,,,,,,,,,,,,,,,
fist,1,3,128,148,126,128,134,126,132,141,137,235,245,247,262,273,248,265,254,238,231,178,159,167,176,203,198,178,186,236,256,276,277,310,272,251,283,293,261,260,275,257,268,263,270,261,248,264,257,281,290,310,289,284,249,250,239,223,255,279,260,232,335,321,307,307,346,263,260,260,259,199,177,220,224,222,230,230,221,220,209,247,264,239,240,263,211,182,163,153,103,126,141,163,165,208,207,230,265,291,314,334,331,336,326,364,349,357,352,347,288,292,291,256,276,270,263,260,273,270,243,241,214,261,262,265,322,325,268,251,250,190,184,199,,,,,,,,,,,,,,,,,,,,,,,,,,,,,,,,,,,,,,,,,,,,,,,,,,,,,,,,,,,,,,,,,,,,,,,,,,,,,,,,,,,,,,,,,,,,,,,,,,,,,,,,,,,,,,
fist,1,4,137,137,142,124,127,120,117,98,96,96,96,106,124,122,119,144,173,180,197,197,187,199,193,171,172,189,213,212,234,233,238,204,199,183,224,229,242,282,310,352,366,388,385,395,351,330,310,286,245,243,348,328,339,396,486,427,432,417,365,216,187,274,277,300,297,288,188,289,266,289,344,351,296,284,279,251,240,228,233,225,191,203,212,229,218,210,216,209,190,181,181,160,201,203,204,193,187,104,80,81,99,142,202,292,342,373,382,370,328,351,343,345,351,399,355,420,423,436,393,391,300,286,245,221,217,208,197,189,197,175,199,196,,,,,,,,,,,,,,,,,,,,,,,,,,,,,,,,,,,,,,,,,,,,,,,,,,,,,,,,,,,,,,,,,,,,,,,,,,,,,,,,,,,,,,,,,,,,,,,,,,,,,,,,,,,,,,
fist,1,5,132,115,111,157,158,198,200,199,175,178,150,155,169,168,160,138,127,117,105,110,114,120,113,124,118,116,115,124,128,142,154,178,205,218,214,220,199,168,139,147,149,146,150,215,241,226,255,284,273,299,383,382,363,341,328,237,217,222,255,236,246,256,283,269,255,236,223,192,169,186,185,189,199,207,181,207,295,283,296,304,337,268,266,315,339,294,295,355,299,319,326,333,290,327,304,287,269,238,189,134,148,139,141,141,190,215,223,228,241,215,207,216,274,259,281,304,368,370,412,487,480,435,431,429,380,397,411,383,344,337,313,300,335,349,303,300,289,243,210,208,248,261,264,286,316,308,303,306,357,324,306,317,353,323,321,321,248,261,318,,,,,,,,,,,,,,,,,,,,,,,,,,,,,,,,,,,,,,,,,,,,,,,,,,,,,,,,,,,,,,,,,,,,,,,,,,,,,,,,,,,
fist,1,6,118,111,112,136,194,192,193,223,221,179,174,173,187,173,170,174,212,208,212,262,281,257,226,218,157,128,138,152,173,173,186,186,195,187,198,178,228,224,234,276,292,288,290,295,243,242,207,220,210,221,229,243,220,209,237,242,217,222,256,239,249,261,249,290,317,289,280,317,320,302,310,335,332,274,330,323,353,356,376,318,401,403,393,381,377,313,255,223,198,180,122,111,128,149,172,182,196,219,279,277,281,282,299,295,381,427,502,502,480,428,381,310,310,320,327,320,274,232,213,164,200,237,268,268,278,259,255,266,266,250,244,235,195,168,169,192,,,,,,,,,,,,,,,,,,,,,,,,,,,,,,,,,,,,,,,,,,,,,,,,,,,,,,,,,,,,,,,,,,,,,,,,,,,,,,,,,,,,,,,,,,,,,,,,,,,,,,,,,,
fist,1,7,175,178,183,188,166,168,173,254,249,244,236,236,141,107,127,127,127,130,137,142,151,147,153,146,129,108,101,106,108,135,166,168,164,178,214,201,229,250,256,250,259,309,359,368,356,355,313,267,276,278,268,247,295,291,294,304,319,264,245,280,287,283,292,310,267,246,231,201,265,257,265,271,334,258,279,307,330,261,262,255,246,283,299,303,303,327,282,277,287,280,259,245,230,203,225,208,207,210,244,221,194,180,169,111,79,65,65,61,58,59,83,82,85,94,108,90,93,106,126,131,157,169,164,160,161,171,209,250,284,326,350,336,318,313,288,252,257,246,235,223,234,247,246,243,227,205,179,188,210,220,241,237,243,241,267,249,236,259,,,,,,,,,,,,,,,,,,,,,,,,,,,,,,,,,,,,,,,,,,,,,,,,,,,,,,,,,,,,,,,,,,,,,,,,,,,,,,,,,,,,
fist,1,8,144,171,210,228,223,234,229,219,238,246,251,236,192,147,146,119,133,157,161,155,174,221,248,296,307,353,325,305,279,329,318,326,340,350,331,315,333,325,308,290,328,315,303,300,300,252,250,262,285,279,260,274,260,236,236,264,228,242,271,291,285,343,382,367,343,322,256,165,126,114,111,151,205,230,234,238,259,244,253,256,264,245,333,378,407,413,410,343,302,291,293,327,360,343,342,330,326,277,265,247,253,194,232,252,249,247,272,243,236,217,245,228,224,207,240,237,249,267,267,254,,,,,,,,,,,,,,,,,,,,,,,,,,,,,,,,,,,,,,,,,,,,,,,,,,,,,,,,,,,,,,,,,,,,,,,,,,,,,,,,,,,,,,,,,,,,,,,,,,,,,,,,,,,,,,,,,,,,,,,,,,
fist,1,9,187,171,163,158,143,111,113,125,143,154,153,162,146,131,110,104,87,138,151,163,179,210,273,270,262,257,235,127,126,126,125,121,139,139,144,140,148,119,147,184,216,242,256,272,266,281,268,282,299,292,295,293,306,273,333,314,324,328,348,310,297,319,288,251,234,247,201,206,218,219,265,275,273,294,295,244,269,263,240,248,244,262,283,274,257,301,289,277,283,298,252,219,222,214,184,184,185,159,160,167,174,147,138,129,143,153,146,163,157,151,157,227,267,288,305,302,266,260,253,272,276,282,296,295,274,258,279,235,248,250,283,259,289,283,274,246,245,197,192,223,220,237,239,238,198,210,171,180,198,191,183,198,190,,,,,,,,,,,,,,,,,,,,,,,,,,,,,,,,,,,,,,,,,,,,,,,,,,,,,,,,,,,,,,,,,,,,,,,,,,,,,,,,,,,,,,,,,
fingersSpread,1,0,47,40,42,46,42,51,51,47,45,45,42,46,48,50,64,75,71,72,79,100,102,105,115,123,154,169,185,230,292,286,312,335,396,409,415,431,440,525,538,591,644,699,640,669,680,663,658,661,643,678,736,718,734,720,706,619,639,631,667,718,719,722,687,614,449,403,270,209,202,187,161,144,122,111,88,80,71,64,88,96,94,96,94,79,61,68,65,68,55,60,62,64,62,62,82,105,126,128,131,124,104,,,,,,,,,,,,,,,,,,,,,,,,,,,,,,,,,,,,,,,,,,,,,,,,,,,,,,,,,,,,,,,,,,,,,,,,,,,,,,,,,,,,,,,,,,,,,,,,,,,,,,,,,,,,,,,,,,,,,,,,,,,,,,,,,,,,,,,,,,,,,
fingersSpread,1,1,189,224,257,280,335,331,328,308,286,251,423,448,493,546,561,491,532,559,682,692,677,661,714,661,645,723,753,734,754,763,775,732,753,730,734,701,719,709,710,719,701,759,715,692,652,640,524,472,354,345,266,240,189,169,149,105,111,103,118,113,102,94,94,75,72,72,74,73,76,73,70,63,65,56,55,55,57,72,80,90,89,86,78,71,58,65,64,61,63,65,63,75,75,73,73,74,58,54,58,64,57,63,64,59,50,56,50,46,58,67,62,72,72,61,52,58,45,45,43,48,46,48,47,49,60,61,66,65,65,60,57,50,49,57,48,45,45,46,40,42,52,54,60,62,62,57,54,47,52,51,49,51,52,,,,,,,,,,,,,,,,,,,,,,,,,,,,,,,,,,,,,,,,,,,,,,,,,,,,,,,,,,,,,,,,,,,,,,,,,,,,,,,,,,,,,,,,,
fingersSpread,1,2,36,35,35,38,41,40,42,42,45,40,46,43,46,57,67,65,69,83,75,104,117,132,129,136,144,150,149,176,187,192,187,187,185,188,169,195,220,241,338,378,399,402,489,457,499,560,615,602,664,635,589,612,580,501,500,476,420,409,485,557,622,613,613,613,576,549,581,668,664,649,641,737,738,783,824,862,817,785,700,636,561,430,336,302,262,215,228,184,166,168,170,129,127,124,117,114,110,105,100,93,92,86,66,65,73,83,86,99,99,96,83,79,61,,,,,,,,,,,,,,,,,,,,,,,,,,,,,,,,,,,,,,,,,,,,,,,,,,,,,,,,,,,,,,,,,,,,,,,,,,,,,,,,,,,,,,,,,,,,,,,,,,,,,,,,,,,,,,,,,,,,,,,,,,,,,,,,,
fingersSpread,1,3,42,41,40,45,51,53,56,56,51,57,53,52,54,64,60,66,65,63,63,83,107,120,129,146,192,186,192,195,208,181,209,237,243,236,272,254,250,253,267,263,274,263,311,377,385,404,482,472,460,443,438,411,460,447,458,506,561,550,541,586,622,554,556,609,649,617,691,691,668,670,633,588,578,603,506,523,537,520,485,484,518,532,555,583,649,627,547,515,446,334,293,282,255,223,190,135,126,119,112,119,128,122,125,117,101,81,75,85,84,87,88,85,69,67,76,93,96,89,102,98,79,80,81,66,62,,,,,,,,,,,,,,,,,,,,,,,,,,,,,,,,,,,,,,,,,,,,,,,,,,,,,,,,,,,,,,,,,,,,,,,,,,,,,,,,,,,,,,,,,,,,,,,,,,,,,,,,,,,,,,,,,,,,,
fingersSpread,1,4,50,53,52,50,45,46,45,43,43,49,51,52,50,51,59,67,81,94,102,113,112,103,99,93,86,112,128,140,147,155,159,182,195,219,262,270,294,298,326,319,312,292,328,363,374,395,412,444,559,656,667,694,769,712,618,648,669,543,487,520,687,760,804,837,843,709,681,724,756,805,804,827,768,763,747,937,905,903,906,961,767,691,657,564,372,321,297,299,308,253,222,196,207,176,148,139,138,129,123,120,115,118,85,77,90,90,88,90,89,68,69,67,70,79,79,75,80,78,68,66,78,69,64,69,76,64,,,,,,,,,,,,,,,,,,,,,,,,,,,,,,,,,,,,,,,,,,,,,,,,,,,,,,,,,,,,,,,,,,,,,,,,,,,,,,,,,,,,,,,,,,,,,,,,,,,,,,,,,,,,,,,,,,,,
fingersSpread,1,5,64,60,81,123,135,148,160,158,126,116,103,86,73,76,82,90,121,134,168,210,238,287,302,295,294,314,279,294,295,296,329,324,371,417,507,485,546,706,766,768,829,909,840,806,774,747,687,630,707,827,915,885,900,889,786,692,725,727,732,714,703,766,789,699,709,668,526,450,441,419,418,375,326,301,248,210,195,161,146,130,117,113,80,85,98,101,102,107,94,78,77,71,61,69,84,77,84,82,74,83,88,79,81,89,68,58,62,62,52,63,70,73,73,,,,,,,,,,,,,,,,,,,,,,,,,,,,,,,,,,,,,,,,,,,,,,,,,,,,,,,,,,,,,,,,,,,,,,,,,,,,,,,,,,,,,,,,,,,,,,,,,,,,,,,,,,,,,,,,,,,,,,,,,,,,,,,,,
fingersSpread,1,6,52,52,51,51,53,52,49,50,49,42,39,40,41,45,44,48,47,45,94,94,106,122,136,110,114,141,142,159,159,160,132,134,110,132,147,165,164,203,236,257,267,283,305,352,396,387,398,398,359,306,311,307,329,332,349,398,416,407,414,425,427,552,547,547,539,515,386,381,367,389,441,444,443,478,440,395,371,394,395,464,553,588,579,544,554,509,488,487,496,442,437,404,382,383,365,272,250,240,190,161,137,143,115,120,118,122,111,95,77,76,66,59,58,58,47,60,57,59,61,67,66,66,78,82,77,68,68,53,55,60,59,62,62,56,55,59,61,,,,,,,,,,,,,,,,,,,,,,,,,,,,,,,,,,,,,,,,,,,,,,,,,,,,,,,,,,,,,,,,,,,,,,,,,,,,,,,,,,,,,,,,,,,,,,,,,,,,,,,,,
fingersSpread,1,7,71,77,68,70,69,81,81,91,92,106,112,110,104,113,113,108,154,152,144,153,155,128,149,153,142,173,189,182,185,200,174,159,171,189,206,248,251,266,276,331,317,336,341,335,302,348,340,375,382,362,321,355,422,453,533,604,667,611,611,557,514,442,465,495,536,596,609,589,554,540,518,545,553,645,662,666,605,602,564,614,566,590,592,525,435,411,451,480,490,451,432,399,338,303,329,334,283,262,251,215,201,157,152,169,127,124,131,137,111,329,334,283,121,123,112,98,89,76,69,64,67,51,64,66,66,64,68,53,59,57,59,55,58,43,49,49,55,51,51,46,47,38,39,,,,,,,,,,,,,,,,,,,,,,,,,,,,,,,,,,,,,,,,,,,,,,,,,,,,,,,,,,,,,,,,,,,,,,,,,,,,,,,,,,,,,,,,,,,,,,,,,,,
fingersSpread,1,8,38,41,42,39,46,46,43,43,44,40,58,58,58,58,56,41,53,55,81,119,129,140,146,149,126,142,132,135,143,150,151,150,152,133,135,113,125,151,196,200,225,226,213,189,233,230,240,247,262,243,270,260,268,275,260,284,321,364,425,455,512,550,566,529,621,596,587,557,583,499,488,591,647,648,673,664,576,575,608,656,672,652,595,527,487,499,531,631,678,624,622,598,529,515,528,476,502,477,440,414,462,430,416,407,402,385,394,426,421,404,348,312,225,196,209,229,207,200,178,154,112,98,99,103,101,106,113,117,118,114,114,108,99,90,93,77,76,72,83,80,81,77,74,78,84,81,75,74,59,54,,,,,,,,,,,,,,,,,,,,,,,,,,,,,,,,,,,,,,,,,,,,,,,,,,,,,,,,,,,,,,,,,,,,,,,,,,,,,,,,,,,,,,,,,,,,
fingersSpread,1,9,54,56,64,65,77,75,76,73,86,86,84,86,93,86,103,107,115,113,130,130,132,178,189,190,191,201,161,172,162,157,189,234,259,293,337,346,335,347,337,316,298,325,319,405,407,411,451,478,406,455,459,397,366,407,341,333,363,361,350,382,394,391,382,357,393,399,390,385,429,379,368,378,389,347,332,386,387,372,393,406,435,437,450,477,464,425,401,427,365,358,320,323,274,300,317,303,323,317,292,266,253,205,188,160,177,163,149,132,186,198,228,225,225,180,143,107,107,108,107,101,86,86,85,91,91,86,87,81,71,71,74,82,87,88,89,92,80,88,84,83,77,,,,,,,,,,,,,,,,,,,,,,,,,,,,,,,,,,,,,,,,,,,,,,,,,,,,,,,,,,,,,,,,,,,,,,,,,,,,,,,,,,,,,,,,,,,,,,,,,,,,,
waveOut,1,0,52,59,59,54,53,69,76,107,180,246,280,350,356,344,378,366,313,388,465,439,500,531,514,560,650,632,669,768,804,765,1047,1065,1109,1260,1306,1183,1221,1195,1079,1195,1323,1376,1517,1536,1483,1402,1439,1319,1320,1345,1430,1408,1381,1438,1334,1161,1137,1281,1233,1357,1392,1490,1340,1317,1239,1212,978,1177,1146,1265,1308,1348,1168,1124,1046,988,976,963,977,832,813,720,667,599,565,441,402,421,352,370,363,351,303,271,215,208,178,156,167,170,164,157,162,116,104,95,93,62,50,49,69,68,70,73,93,87,93,93,88,71,94,91,94,96,96,69,,,,,,,,,,,,,,,,,,,,,,,,,,,,,,,,,,,,,,,,,,,,,,,,,,,,,,,,,,,,,,,,,,,,,,,,,,,,,,,,,,,,,,,,,,,,,,,,,,,,,,,,,,,,,,,,,,,,
waveOut,1,1,295,279,254,278,277,273,275,334,342,418,441,466,573,649,625,680,802,742,714,771,782,724,865,910,902,997,1083,1091,1123,1188,1160,1190,1110,1184,1241,1349,1363,1397,1371,1383,1292,1246,1259,1293,1188,1202,1114,1171,1214,1243,1207,1304,1345,1234,1280,1327,1322,1329,1412,1419,1396,1439,1401,1296,1218,1276,1278,1335,1358,1384,1401,1363,1216,1223,1224,1038,946,910,820,660,642,526,445,347,303,270,236,248,239,232,229,246,283,279,262,255,257,177,168,166,176,138,133,128,130,114,127,151,155,152,159,158,119,121,120,132,115,119,121,,,,,,,,,,,,,,,,,,,,,,,,,,,,,,,,,,,,,,,,,,,,,,,,,,,,,,,,,,,,,,,,,,,,,,,,,,,,,,,,,,,,,,,,,,,,,,,,,,,,,,,,,,,,,,,,,,,,,,,,,,,
waveOut,1,2,146,147,159,157,159,161,212,256,310,341,395,416,483,523,514,486,457,366,316,321,348,369,414,422,497,531,647,701,785,775,808,765,801,785,847,925,1069,1137,1170,1245,1239,1157,1117,1203,1214,1187,1311,1317,1253,1226,1404,1341,1376,1411,1412,1270,1250,1230,1259,1270,1282,1294,1300,1210,1155,1164,1168,1163,1217,1245,1171,1131,1063,992,855,775,639,535,369,320,319,289,244,228,224,215,214,226,239,251,268,265,245,202,183,156,143,143,142,141,140,137,130,116,114,94,95,93,105,92,107,110,119,108,116,100,91,98,105,100,121,132,119,115,,,,,,,,,,,,,,,,,,,,,,,,,,,,,,,,,,,,,,,,,,,,,,,,,,,,,,,,,,,,,,,,,,,,,,,,,,,,,,,,,,,,,,,,,,,,,,,,,,,,,,,,,,,,,,,,,,,,,,
waveOut,1,3,92,198,204,200,208,221,183,188,201,196,199,190,190,199,198,194,232,241,243,270,341,314,350,354,389,371,442,516,558,594,629,597,714,737,719,820,904,833,914,979,922,944,911,829,794,805,772,912,951,993,975,995,928,930,1059,1093,1059,1062,1058,1045,1095,1148,1147,1313,1240,1286,1326,1341,1192,1185,1143,1068,1073,1126,1189,1147,1165,1112,1034,1002,986,909,884,836,664,544,516,453,415,384,350,311,296,286,253,257,215,216,192,194,187,185,180,174,136,135,134,141,135,132,99,96,94,89,90,121,112,122,120,144,132,133,,,,,,,,,,,,,,,,,,,,,,,,,,,,,,,,,,,,,,,,,,,,,,,,,,,,,,,,,,,,,,,,,,,,,,,,,,,,,,,,,,,,,,,,,,,,,,,,,,,,,,,,,,,,,,,,,,,,,,,,
waveOut,1,4,62,82,89,87,89,87,99,101,111,114,118,104,130,132,140,180,201,204,201,213,201,211,227,261,255,278,274,270,275,301,319,343,360,372,370,369,427,471,494,529,535,567,551,589,596,608,588,654,605,627,667,741,691,795,858,921,912,927,905,904,904,921,931,1030,1032,1001,934,975,898,928,1020,1171,1187,1199,1236,1339,1260,1328,1348,1257,1127,1138,1110,1195,1210,1173,1201,1207,1118,1169,1101,1081,1139,1208,1189,1273,1260,1149,1002,1007,956,940,851,814,721,632,477,441,392,285,258,243,206,195,235,218,267,268,284,239,221,151,141,101,100,92,94,107,111,111,113,112,100,96,100,101,105,100,84,88,91,89,89,89,67,65,81,87,94,94,90,74,,,,,,,,,,,,,,,,,,,,,,,,,,,,,,,,,,,,,,,,,,,,,,,,,,,,,,,,,,,,,,,,,,,,,,,,,,,,,,,,,,,,,,,,,,
waveOut,1,5,85,84,121,187,243,272,345,364,348,403,399,350,341,365,376,464,473,520,534,498,472,570,650,704,739,755,758,698,710,684,764,859,916,959,1032,1050,983,984,940,909,950,1026,1056,1107,1150,1197,1120,1077,1103,1100,1049,1174,1164,1148,1178,1220,1203,1249,1268,1227,1087,1106,1075,1106,1129,1297,1251,1261,1237,1244,1201,1147,1152,1074,1106,1024,1027,1100,1112,1086,1066,1015,859,785,608,453,411,329,258,227,229,228,228,229,197,184,183,172,191,193,194,189,184,155,161,184,180,182,180,177,125,101,105,106,79,109,122,128,130,130,119,112,98,96,100,109,106,111,,,,,,,,,,,,,,,,,,,,,,,,,,,,,,,,,,,,,,,,,,,,,,,,,,,,,,,,,,,,,,,,,,,,,,,,,,,,,,,,,,,,,,,,,,,,,,,,,,,,,,,,,,,,,,,,,,
waveOut,1,6,39,38,47,68,77,81,87,87,101,102,121,145,148,142,144,130,106,165,203,205,229,233,201,162,170,157,172,177,197,216,210,314,310,318,312,375,319,336,334,380,375,357,406,443,471,524,624,647,668,660,622,653,678,704,774,863,865,902,986,1051,1056,1116,1158,1156,1123,1217,1230,1196,1196,1225,1130,1136,1211,1205,1178,1208,1313,1359,1380,1383,1369,1329,1257,1255,1256,1378,1273,1219,1179,1196,1093,1140,1250,1267,1208,1202,1112,927,828,779,591,516,474,409,357,294,249,261,248,240,238,253,235,223,211,229,192,166,156,156,108,105,126,128,127,131,122,90,86,90,87,89,89,93,86,78,79,,,,,,,,,,,,,,,,,,,,,,,,,,,,,,,,,,,,,,,,,,,,,,,,,,,,,,,,,,,,,,,,,,,,,,,,,,,,,,,,,,,,,,,,,,,,,,,,,,,,,,,,,
waveOut,1,7,56,66,59,59,64,67,60,79,105,143,155,159,166,235,219,218,236,238,176,194,192,191,181,190,188,185,188,208,215,249,294,302,297,328,298,312,334,376,419,464,552,582,667,693,721,689,687,623,624,614,637,666,755,774,888,875,938,921,973,997,1120,1224,1234,1265,1215,1179,1201,1228,1206,1317,1354,1257,1381,1443,1357,1373,1453,1328,1312,1338,1294,1270,1328,1267,1265,1282,1160,1067,1071,1156,1084,1110,1170,1113,936,953,943,898,869,816,709,591,390,339,330,290,286,277,278,259,267,258,234,214,184,179,184,190,173,176,149,139,130,99,70,75,73,72,97,131,130,133,139,130,106,102,99,,,,,,,,,,,,,,,,,,,,,,,,,,,,,,,,,,,,,,,,,,,,,,,,,,,,,,,,,,,,,,,,,,,,,,,,,,,,,,,,,,,,,,,,,,,,,,,,,,,,,,,,,
waveOut,1,8,303,297,297,306,321,300,325,325,329,308,258,223,259,299,304,313,392,388,361,501,535,605,719,825,791,840,834,841,861,855,863,945,1017,982,1102,1087,1066,1048,1035,1006,1221,1303,1306,1401,1502,1416,1374,1323,1313,1184,1143,1168,1227,1252,1260,1247,1218,1261,1235,1245,1261,1252,1215,1233,1178,1128,1145,1126,1029,1072,1151,1127,1038,1077,1054,987,882,960,868,774,665,629,525,471,478,479,478,369,325,253,248,222,205,207,208,176,151,148,128,135,124,126,113,131,138,139,146,145,140,123,129,115,112,101,85,81,82,90,103,123,117,118,,,,,,,,,,,,,,,,,,,,,,,,,,,,,,,,,,,,,,,,,,,,,,,,,,,,,,,,,,,,,,,,,,,,,,,,,,,,,,,,,,,,,,,,,,,,,,,,,,,,,,,,,,,,,,,,,,,,,,,,
waveOut,1,9,77,73,78,61,55,57,69,82,82,85,89,81,62,62,63,56,56,67,73,79,114,142,154,165,163,156,135,130,134,150,163,209,244,267,278,289,272,253,241,237,234,259,271,267,321,340,338,379,390,413,420,463,461,464,501,535,703,701,722,702,755,624,603,675,803,834,874,930,995,1065,1059,1026,1063,1050,993,1108,1291,1326,1464,1527,1458,1370,1357,1240,1151,1124,1293,1363,1389,1378,1425,1256,1211,1205,1275,1251,1248,1183,1077,958,841,710,602,491,326,326,311,286,264,235,237,246,227,228,219,184,140,128,132,122,139,139,153,145,140,121,141,134,130,136,131,98,115,121,120,117,120,117,114,116,118,,,,,,,,,,,,,,,,,,,,,,,,,,,,,,,,,,,,,,,,,,,,,,,,,,,,,,,,,,,,,,,,,,,,,,,,,,,,,,,,,,,,,,,,,,,,,,,,,,,,,
waveIn,1,0,141,138,142,92,81,83,88,74,72,69,73,74,83,92,105,105,128,144,156,170,189,177,183,182,187,180,186,186,189,168,167,156,181,193,197,185,200,182,184,182,197,195,213,203,203,197,198,163,148,149,191,180,185,191,195,151,145,134,119,97,82,76,55,51,46,43,52,54,57,60,87,102,116,146,155,156,167,165,163,179,189,211,224,248,289,303,287,288,318,273,244,233,218,129,139,167,180,221,213,216,209,205,164,160,161,165,183,176,191,171,152,113,117,,,,,,,,,,,,,,,,,,,,,,,,,,,,,,,,,,,,,,,,,,,,,,,,,,,,,,,,,,,,,,,,,,,,,,,,,,,,,,,,,,,,,,,,,,,,,,,,,,,,,,,,,,,,,,,,,,,,,,,,,,,,,,,,,
waveIn,1,1,199,202,174,172,141,138,146,140,141,137,129,100,95,92,92,96,92,123,130,132,137,135,125,155,173,174,189,232,210,204,202,194,137,138,136,145,142,136,155,149,140,135,171,170,169,177,181,157,141,145,126,120,127,125,112,108,106,88,89,92,92,92,90,91,92,94,94,90,91,97,111,122,128,129,123,112,96,83,75,87,80,84,88,92,108,129,142,156,188,198,206,226,227,243,319,347,360,376,372,310,296,263,238,215,207,193,185,193,196,183,153,163,148,134,136,149,156,,,,,,,,,,,,,,,,,,,,,,,,,,,,,,,,,,,,,,,,,,,,,,,,,,,,,,,,,,,,,,,,,,,,,,,,,,,,,,,,,,,,,,,,,,,,,,,,,,,,,,,,,,,,,,,,,,,,,,,,,,,,,
waveIn,1,2,154,148,130,134,103,102,109,143,142,138,174,174,154,202,200,168,171,177,126,128,151,144,127,119,113,76,84,93,92,96,123,120,204,215,218,223,226,152,142,136,105,97,113,108,108,114,130,114,131,132,156,159,157,148,165,145,147,154,153,146,176,165,166,181,175,141,153,146,132,127,132,137,149,142,145,143,128,145,144,140,133,123,90,121,117,121,124,116,82,90,99,161,189,195,213,212,206,206,208,192,196,206,198,232,255,256,255,248,227,209,234,196,228,227,226,201,210,172,181,197,220,223,225,208,196,194,184,,,,,,,,,,,,,,,,,,,,,,,,,,,,,,,,,,,,,,,,,,,,,,,,,,,,,,,,,,,,,,,,,,,,,,,,,,,,,,,,,,,,,,,,,,,,,,,,,,,,,,,,,,,,,,,,,,,
waveIn,1,3,141,143,136,142,99,94,94,80,207,222,231,232,240,144,129,131,131,124,122,114,99,96,87,78,86,82,102,106,109,104,118,107,102,100,95,81,80,109,114,120,121,124,103,110,111,106,110,119,120,119,127,143,152,145,150,153,135,116,118,108,112,106,116,115,116,99,100,88,80,75,79,80,73,71,70,59,55,58,70,75,77,114,112,105,111,120,90,90,106,100,113,173,178,174,188,205,169,182,187,174,151,220,212,230,228,227,162,193,188,198,244,242,218,216,210,165,199,216,207,220,214,186,168,231,230,221,213,,,,,,,,,,,,,,,,,,,,,,,,,,,,,,,,,,,,,,,,,,,,,,,,,,,,,,,,,,,,,,,,,,,,,,,,,,,,,,,,,,,,,,,,,,,,,,,,,,,,,,,,,,,,,,,,,,,
waveIn,1,4,133,136,123,130,110,111,104,97,94,91,84,91,93,105,122,120,119,116,102,83,82,79,79,69,77,83,81,81,85,90,87,105,119,115,99,100,83,58,56,59,61,63,66,67,67,79,84,88,91,96,94,116,129,145,145,61,63,147,159,141,134,129,129,110,110,110,105,120,126,127,121,113,100,99,99,108,116,120,121,129,141,142,136,132,123,112,115,134,139,138,158,148,135,128,135,104,101,98,96,79,71,68,54,60,67,85,129,157,198,199,201,195,250,255,269,289,289,255,229,228,207,222,235,253,255,275,260,243,271,262,248,261,275,228,222,208,215,177,226,229,229,213,221,156,164,169,163,180,183,196,,,,,,,,,,,,,,,,,,,,,,,,,,,,,,,,,,,,,,,,,,,,,,,,,,,,,,,,,,,,,,,,,,,,,,,,,,,,,,,,,,,,,,,,,,,,
waveIn,1,5,105,112,105,98,98,126,127,125,150,149,154,188,217,224,247,242,217,235,235,224,213,216,163,146,179,175,172,169,154,119,123,122,124,125,100,95,85,85,79,75,75,71,69,71,74,73,74,79,76,72,72,83,84,92,92,99,95,101,104,109,103,103,96,84,79,83,85,84,98,93,106,100,101,95,101,138,143,155,159,164,140,150,141,141,132,116,99,100,87,85,77,68,50,54,69,81,84,100,105,101,106,115,123,130,141,152,195,192,207,202,201,172,181,165,162,170,184,211,224,285,293,295,265,264,220,213,188,198,183,178,189,196,193,198,232,208,220,214,,,,,,,,,,,,,,,,,,,,,,,,,,,,,,,,,,,,,,,,,,,,,,,,,,,,,,,,,,,,,,,,,,,,,,,,,,,,,,,,,,,,,,,,,,,,,,,,,,,,,,,,
waveIn,1,6,196,183,181,199,215,195,180,179,197,206,207,208,211,198,167,154,148,158,126,112,114,111,91,86,85,84,86,76,86,83,82,86,115,131,149,151,151,142,122,96,94,85,67,70,76,78,86,91,94,96,101,95,90,89,87,85,88,93,103,110,117,120,129,132,129,125,125,121,109,107,122,143,145,158,173,156,136,129,119,102,118,124,127,124,120,110,101,92,88,83,82,76,69,68,74,67,107,161,197,205,255,363,360,354,363,413,374,376,367,359,347,317,313,326,365,299,302,321,366,355,349,330,311,295,327,336,324,318,301,236,239,274,282,260,271,253,232,276,271,262,283,277,223,244,242,261,249,267,234,247,203,200,,,,,,,,,,,,,,,,,,,,,,,,,,,,,,,,,,,,,,,,,,,,,,,,,,,,,,,,,,,,,,,,,,,,,,,,,,,,,,,,,,,,,,,,,,
waveIn,1,7,118,122,120,112,117,109,122,103,104,95,95,92,91,93,104,103,92,90,87,73,72,55,90,100,100,105,109,95,84,88,90,90,93,109,109,104,98,90,87,96,95,98,106,99,104,117,121,124,122,116,100,104,98,108,104,109,108,101,98,100,107,108,123,118,132,128,125,129,133,127,127,128,110,101,92,108,112,124,141,154,156,170,171,169,156,142,113,96,75,72,69,75,71,70,63,64,54,54,54,100,108,110,111,112,79,75,138,149,164,169,174,204,232,234,235,232,205,170,184,189,224,224,232,229,234,212,188,191,180,167,186,189,174,200,225,203,230,230,202,200,208,168,170,191,174,178,203,200,190,,,,,,,,,,,,,,,,,,,,,,,,,,,,,,,,,,,,,,,,,,,,,,,,,,,,,,,,,,,,,,,,,,,,,,,,,,,,,,,,,,,,,,,,,,,,,
waveIn,1,8,87,82,98,90,88,78,75,65,73,82,79,81,76,77,68,67,64,62,46,54,52,53,51,55,45,60,59,60,58,59,54,55,62,65,82,80,82,85,88,84,82,84,77,77,70,71,84,82,84,93,98,93,98,104,104,100,101,108,107,102,110,119,118,120,123,121,114,110,110,112,107,104,102,95,79,82,72,83,87,95,92,90,74,73,62,56,54,52,36,42,57,105,171,178,261,299,299,334,358,334,304,315,281,270,239,269,274,268,256,255,241,214,218,211,246,249,253,229,236,216,246,255,262,255,287,241,227,215,225,179,172,214,210,199,192,204,186,181,180,175,169,168,182,187,194,188,192,201,196,,,,,,,,,,,,,,,,,,,,,,,,,,,,,,,,,,,,,,,,,,,,,,,,,,,,,,,,,,,,,,,,,,,,,,,,,,,,,,,,,,,,,,,,,,,,,
waveIn,1,9,109,123,117,124,132,128,124,136,139,129,129,119,99,92,79,78,105,106,100,105,112,121,163,175,173,184,197,167,161,162,155,118,123,123,118,112,122,118,132,135,137,122,122,102,97,83,72,61,59,59,58,63,56,52,50,51,50,59,61,66,65,70,64,64,66,64,59,67,73,75,88,97,96,103,106,105,95,89,78,80,78,82,90,90,93,105,104,105,104,100,94,98,94,92,90,84,100,101,119,123,132,119,119,103,100,83,83,76,71,64,73,70,85,89,86,74,70,52,56,99,177,222,225,231,217,172,152,175,197,215,221,198,199,225,235,238,258,265,242,220,209,195,230,216,225,232,225,168,216,218,218,231,239,226,227,217,206,194,187,174,217,216,213,209,215,196,,,,,,,,,,,,,,,,,,,,,,,,,,,,,,,,,,,,,,,,,,,,,,,,,,,,,,,,,,,,,,,,,,,,,,,,,,,,
doubleTap,1,0,84,88,89,97,100,119,127,139,149,162,176,196,189,185,173,155,409,525,658,783,878,833,784,715,728,706,706,748,905,883,908,904,940,791,786,780,798,717,690,632,521,434,401,392,288,223,207,245,265,268,305,309,278,247,259,218,234,227,237,225,222,185,208,195,191,209,217,186,191,211,201,198,196,301,280,280,,,,,,,,,,,,,,,,,,,,,,,,,,,,,,,,,,,,,,,,,,,,,,,,,,,,,,,,,,,,,,,,,,,,,,,,,,,,,,,,,,,,,,,,,,,,,,,,,,,,,,,,,,,,,,,,,,,,,,,,,,,,,,,,,,,,,,,,,,,,,,,,,,,,,,,,,,,,,,,,,,,,,,
doubleTap,1,1,130,146,143,129,109,123,114,126,241,460,591,681,718,700,597,478,384,432,505,561,639,752,791,778,800,815,741,679,684,639,563,508,449,373,351,301,287,308,302,246,249,261,212,218,208,204,164,193,174,197,205,217,199,245,229,217,209,,,,,,,,,,,,,,,,,,,,,,,,,,,,,,,,,,,,,,,,,,,,,,,,,,,,,,,,,,,,,,,,,,,,,,,,,,,,,,,,,,,,,,,,,,,,,,,,,,,,,,,,,,,,,,,,,,,,,,,,,,,,,,,,,,,,,,,,,,,,,,,,,,,,,,,,,,,,,,,,,,,,,,,,,,,,,,,,,,,,,,,,,
doubleTap,1,2,169,168,166,169,177,298,456,669,839,992,985,924,800,677,459,585,682,695,806,953,1013,996,1024,903,773,647,812,774,808,791,715,462,426,364,302,288,233,226,210,202,178,170,154,136,137,154,162,161,207,204,218,222,228,178,184,162,179,174,179,173,170,126,136,,,,,,,,,,,,,,,,,,,,,,,,,,,,,,,,,,,,,,,,,,,,,,,,,,,,,,,,,,,,,,,,,,,,,,,,,,,,,,,,,,,,,,,,,,,,,,,,,,,,,,,,,,,,,,,,,,,,,,,,,,,,,,,,,,,,,,,,,,,,,,,,,,,,,,,,,,,,,,,,,,,,,,,,,,,,,,,,,,,
doubleTap,1,3,135,147,145,149,160,133,126,141,157,145,145,143,133,138,154,171,163,181,302,550,693,764,792,784,697,745,705,693,786,895,852,879,940,850,749,720,912,855,886,835,758,427,385,287,291,275,254,242,211,155,150,174,197,208,231,231,213,183,169,146,137,142,140,157,154,147,133,155,180,171,180,201,192,156,167,213,196,207,206,200,142,156,137,166,161,169,156,149,152,150,,,,,,,,,,,,,,,,,,,,,,,,,,,,,,,,,,,,,,,,,,,,,,,,,,,,,,,,,,,,,,,,,,,,,,,,,,,,,,,,,,,,,,,,,,,,,,,,,,,,,,,,,,,,,,,,,,,,,,,,,,,,,,,,,,,,,,,,,,,,,,,,,,,,,,,,
doubleTap,1,4,99,97,105,116,121,137,500,622,754,861,877,744,667,543,554,563,584,704,771,731,831,816,744,684,672,589,606,556,529,438,321,333,374,355,325,326,261,186,183,192,201,191,167,171,164,145,149,175,175,165,197,196,221,219,240,205,217,166,172,156,190,185,203,213,205,214,208,203,179,194,178,168,154,157,180,178,178,186,,,,,,,,,,,,,,,,,,,,,,,,,,,,,,,,,,,,,,,,,,,,,,,,,,,,,,,,,,,,,,,,,,,,,,,,,,,,,,,,,,,,,,,,,,,,,,,,,,,,,,,,,,,,,,,,,,,,,,,,,,,,,,,,,,,,,,,,,,,,,,,,,,,,,,,,,,,,,,,,,,,,
doubleTap,1,5,96,118,125,118,113,118,95,100,117,121,122,141,129,121,154,305,474,582,694,721,672,570,480,325,399,414,437,482,637,716,872,933,911,829,729,571,510,550,561,550,509,445,372,299,244,242,228,243,228,227,220,217,195,177,161,135,135,144,170,182,182,172,184,202,209,223,223,203,170,147,123,128,127,122,148,144,148,157,158,111,132,140,138,133,139,,,,,,,,,,,,,,,,,,,,,,,,,,,,,,,,,,,,,,,,,,,,,,,,,,,,,,,,,,,,,,,,,,,,,,,,,,,,,,,,,,,,,,,,,,,,,,,,,,,,,,,,,,,,,,,,,,,,,,,,,,,,,,,,,,,,,,,,,,,,,,,,,,,,,,,,,,,,,
doubleTap,1,6,92,95,83,74,75,81,99,98,103,100,92,66,77,64,85,110,179,238,384,509,549,533,513,437,308,312,447,503,545,709,857,949,1003,1026,957,886,825,865,819,780,695,587,396,360,332,315,286,202,195,200,173,139,133,132,112,105,111,132,125,121,148,189,175,189,200,186,151,171,157,153,150,145,131,143,130,122,164,158,165,166,173,147,148,143,146,,,,,,,,,,,,,,,,,,,,,,,,,,,,,,,,,,,,,,,,,,,,,,,,,,,,,,,,,,,,,,,,,,,,,,,,,,,,,,,,,,,,,,,,,,,,,,,,,,,,,,,,,,,,,,,,,,,,,,,,,,,,,,,,,,,,,,,,,,,,,,,,,,,,,,,,,,,,,
doubleTap,1,7,122,118,137,170,311,335,394,427,430,360,353,299,295,462,482,483,546,562,572,631,751,756,734,645,596,434,336,355,325,287,269,310,287,272,242,255,196,166,169,163,115,152,226,231,236,236,234,166,153,149,183,175,179,187,202,173,151,197,205,198,203,229,194,181,179,194,172,155,151,162,143,153,178,193,180,176,172,160,154,161,167,159,,,,,,,,,,,,,,,,,,,,,,,,,,,,,,,,,,,,,,,,,,,,,,,,,,,,,,,,,,,,,,,,,,,,,,,,,,,,,,,,,,,,,,,,,,,,,,,,,,,,,,,,,,,,,,,,,,,,,,,,,,,,,,,,,,,,,,,,,,,,,,,,,,,,,,,,,,,,,,,,
doubleTap,1,8,109,112,113,111,115,426,547,563,703,768,661,605,619,497,393,383,326,336,425,690,803,887,900,840,663,531,414,379,398,397,390,352,301,280,212,184,153,160,198,189,190,233,221,188,191,192,140,142,116,140,134,143,182,184,180,190,199,165,155,144,140,118,111,129,120,110,106,121,141,153,149,158,145,,,,,,,,,,,,,,,,,,,,,,,,,,,,,,,,,,,,,,,,,,,,,,,,,,,,,,,,,,,,,,,,,,,,,,,,,,,,,,,,,,,,,,,,,,,,,,,,,,,,,,,,,,,,,,,,,,,,,,,,,,,,,,,,,,,,,,,,,,,,,,,,,,,,,,,,,,,,,,,,,,,,,,,,,
doubleTap,1,9,77,91,96,97,96,80,81,79,83,85,91,79,118,275,353,429,485,545,492,447,456,440,375,401,425,528,626,672,837,847,773,708,705,478,440,399,373,280,284,272,252,194,187,177,195,200,184,168,156,149,157,158,164,161,157,173,177,176,170,162,133,128,140,157,148,145,147,135,122,124,131,154,166,158,162,153,128,104,110,112,126,125,122,122,,,,,,,,,,,,,,,,,,,,,,,,,,,,,,,,,,,,,,,,,,,,,,,,,,,,,,,,,,,,,,,,,,,,,,,,,,,,,,,,,,,,,,,,,,,,,,,,,,,,,,,,,,,,,,,,,,,,,,,,,,,,,,,,,,,,,,,,,,,,,,,,,,,,,,,,,,,,,,
fist,2,0,119,125,128,117,140,133,128,119,128,124,127,128,135,132,106,110,120,110,105,137,150,142,143,140,113,91,93,99,108,105,99,98,94,89,83,87,82,73,100,112,119,115,121,108,103,105,108,115,118,123,119,116,114,100,88,105,123,124,132,136,131,125,119,127,127,111,103,100,108,121,138,135,155,160,146,136,137,132,100,109,117,130,115,139,142,179,194,219,224,235,216,230,288,286,273,289,297,229,264,266,252,247,252,250,261,311,312,315,285,303,275,280,289,294,270,267,291,286,289,317,311,297,323,338,359,350,331,310,316,268,316,315,294,259,245,236,211,220,222,231,160,153,155,145,132,117,122,123,130,131,133,125,111,108,124,127,129,129,137,112,112,143,158,169,182,191,190,193,176,168,155,137,100,99,99,121,114,133,148,151,138,151,140,124,118,117,98,125,129,122,115,114,86,78,106,,,,,,,,,,,,,,,,,,,,,,,,,,,,,,,,,,,,,,,,,,,,,,,
fist,2,1,88,94,91,106,107,111,112,112,99,100,90,110,108,105,97,112,95,106,117,118,100,95,99,98,110,114,113,116,114,103,115,114,99,87,91,89,108,131,139,140,172,194,200,206,250,251,243,260,263,246,271,272,276,285,313,283,347,384,383,398,451,460,424,429,472,430,423,454,460,404,448,448,419,466,454,416,367,391,352,360,364,353,314,297,262,219,226,235,190,181,190,176,148,149,135,123,140,157,153,155,170,168,146,154,156,142,125,142,129,162,166,165,157,170,160,160,167,164,164,151,138,147,146,128,124,148,131,133,137,134,120,133,136,133,124,115,121,113,121,122,120,94,96,105,110,108,124,127,,,,,,,,,,,,,,,,,,,,,,,,,,,,,,,,,,,,,,,,,,,,,,,,,,,,,,,,,,,,,,,,,,,,,,,,,,,,,,,,,,,,,,,,,,,,,,
fist,2,2,109,118,125,112,112,95,78,81,94,88,90,95,94,98,109,127,146,152,145,141,144,130,124,120,112,88,81,86,81,83,96,99,90,107,120,116,130,152,176,184,197,223,229,248,283,288,288,286,258,246,247,278,302,314,292,286,254,215,229,281,286,290,300,335,304,307,302,308,286,276,275,304,292,262,294,340,334,342,371,356,341,305,299,342,337,313,328,318,229,223,193,187,192,179,174,172,153,138,133,112,126,120,119,107,121,115,124,131,136,124,112,102,127,135,143,158,151,129,193,187,178,184,186,163,183,194,196,196,154,125,118,112,110,110,120,121,133,153,160,169,166,157,146,150,140,142,151,144,150,151,158,150,,,,,,,,,,,,,,,,,,,,,,,,,,,,,,,,,,,,,,,,,,,,,,,,,,,,,,,,,,,,,,,,,,,,,,,,,,,,,,,,,,,,,,,,,,
fist,2,3,114,115,90,86,93,106,108,116,119,110,127,162,156,154,153,130,76,72,82,103,111,122,128,128,112,105,93,85,77,94,96,99,102,108,117,131,143,150,155,156,149,167,191,206,207,237,234,225,214,240,215,208,221,242,277,310,323,352,387,429,437,479,462,454,375,354,299,348,400,416,420,439,407,340,328,305,270,252,385,414,441,444,437,395,416,430,461,501,441,431,416,381,351,347,297,283,274,236,215,211,171,200,203,204,187,195,155,183,183,181,186,188,152,148,146,127,114,114,113,135,155,145,164,170,194,193,203,189,194,163,155,150,155,158,155,153,148,135,123,143,145,150,154,155,129,112,115,114,118,131,,,,,,,,,,,,,,,,,,,,,,,,,,,,,,,,,,,,,,,,,,,,,,,,,,,,,,,,,,,,,,,,,,,,,,,,,,,,,,,,,,,,,,,,,,,,
fist,2,4,140,148,123,114,97,109,92,112,113,137,135,135,124,119,94,96,105,98,96,114,108,101,99,111,103,93,95,103,104,93,95,91,78,85,89,94,113,117,103,105,109,89,96,110,107,107,114,132,142,150,155,200,210,224,237,234,198,190,188,178,199,203,201,221,214,221,225,234,194,207,213,285,304,426,443,473,443,461,406,410,372,387,416,496,500,520,531,502,423,413,452,478,633,631,749,817,902,822,884,931,893,789,775,758,672,611,598,566,498,333,297,272,307,245,243,245,265,231,231,227,216,221,204,171,161,160,131,152,144,143,157,132,100,114,138,138,146,150,163,156,169,164,168,152,134,110,120,125,132,133,141,141,135,122,127,114,106,99,110,113,108,110,109,108,,,,,,,,,,,,,,,,,,,,,,,,,,,,,,,,,,,,,,,,,,,,,,,,,,,,,,,,,,,,,,,,,,,,,,,,,,,,,,
fist,2,5,120,125,139,149,127,128,127,114,108,112,115,117,119,106,99,104,95,99,120,131,127,136,131,120,133,136,128,135,142,123,113,111,112,99,113,129,137,128,133,122,118,127,157,157,177,211,229,218,234,291,295,281,288,342,310,297,413,506,521,547,547,211,229,749,898,962,1002,1058,981,870,777,719,739,825,784,790,826,778,629,594,615,551,476,465,544,516,510,523,644,601,652,797,837,735,716,639,435,306,356,356,325,293,299,318,317,315,314,290,180,173,191,208,200,188,148,127,102,96,89,104,127,125,128,145,140,131,137,138,128,130,133,141,157,152,146,182,195,179,179,185,133,107,108,121,128,131,,,,,,,,,,,,,,,,,,,,,,,,,,,,,,,,,,,,,,,,,,,,,,,,,,,,,,,,,,,,,,,,,,,,,,,,,,,,,,,,,,,,,,,,,,,,,,,,
fist,2,6,81,85,86,102,102,84,74,71,86,87,93,95,104,80,80,103,103,104,112,134,118,120,135,128,113,115,115,92,93,92,89,95,108,110,111,114,120,149,159,178,212,252,234,231,233,243,302,320,337,340,346,309,351,404,412,413,390,366,301,286,268,261,249,283,304,312,330,333,409,398,375,360,348,220,198,192,190,169,126,123,121,97,86,107,120,146,150,152,144,143,125,122,124,121,109,101,139,138,131,135,156,133,145,150,148,139,146,131,128,118,151,156,151,160,163,122,120,132,124,148,147,141,138,,,,,,,,,,,,,,,,,,,,,,,,,,,,,,,,,,,,,,,,,,,,,,,,,,,,,,,,,,,,,,,,,,,,,,,,,,,,,,,,,,,,,,,,,,,,,,,,,,,,,,,,,,,,,,,,,,,,,,,
fist,2,7,99,96,90,93,90,108,110,127,127,123,114,107,87,82,85,83,85,79,107,109,107,107,119,106,123,145,151,147,145,134,126,143,141,140,142,137,120,139,149,145,147,147,139,130,134,132,128,117,121,149,183,206,227,254,251,235,222,204,178,179,182,186,201,246,240,246,250,239,204,239,238,244,324,342,328,341,360,322,313,312,303,337,341,337,365,372,342,318,316,288,274,253,244,217,191,188,170,158,164,155,139,110,108,107,113,120,122,127,146,138,129,126,122,95,119,120,124,138,140,126,135,142,135,136,168,166,174,178,171,135,148,147,161,164,167,154,138,117,116,121,115,116,117,,,,,,,,,,,,,,,,,,,,,,,,,,,,,,,,,,,,,,,,,,,,,,,,,,,,,,,,,,,,,,,,,,,,,,,,,,,,,,,,,,,,,,,,,,,,,,,,,,,
fist,2,8,105,106,103,100,92,79,88,92,87,86,90,96,90,101,110,108,103,108,114,111,114,112,110,99,96,88,111,115,136,146,145,131,129,105,94,104,94,107,119,129,125,142,145,148,149,181,215,245,256,255,254,220,184,185,184,177,187,197,208,245,324,361,362,378,388,360,320,335,319,439,471,527,699,848,819,787,781,734,678,686,716,752,698,575,549,537,498,428,434,379,342,288,277,259,252,230,181,232,251,258,261,251,197,180,165,162,152,142,141,132,139,153,146,126,160,149,137,140,133,86,87,83,95,103,111,,,,,,,,,,,,,,,,,,,,,,,,,,,,,,,,,,,,,,,,,,,,,,,,,,,,,,,,,,,,,,,,,,,,,,,,,,,,,,,,,,,,,,,,,,,,,,,,,,,,,,,,,,,,,,,,,,,,,
fist,2,9,118,115,92,67,80,90,118,118,123,121,128,123,120,124,124,130,127,133,134,139,141,147,138,140,147,129,107,112,118,91,92,101,121,117,138,139,159,152,179,181,186,175,167,136,122,127,151,167,163,168,170,138,134,131,122,115,122,110,139,137,133,144,142,124,157,182,182,217,254,249,242,252,256,223,216,212,202,227,262,284,305,323,316,309,296,325,322,297,287,287,260,277,289,291,303,276,253,243,277,289,292,282,285,232,209,223,224,198,201,177,188,173,179,168,190,138,147,170,192,166,166,161,130,95,88,117,130,133,147,158,155,149,156,145,149,135,126,108,100,79,106,113,135,189,208,199,194,183,,,,,,,,,,,,,,,,,,,,,,,,,,,,,,,,,,,,,,,,,,,,,,,,,,,,,,,,,,,,,,,,,,,,,,,,,,,,,,,,,,,,,,,,,,,,,,
fingersSpread,2,0,137,139,145,138,124,129,138,158,153,156,150,146,127,133,137,140,150,143,121,107,109,101,118,143,155,165,251,293,300,311,310,254,204,199,185,183,195,241,231,261,274,286,344,399,386,393,396,360,302,306,348,367,324,328,344,306,280,291,312,340,339,315,307,306,274,254,257,248,300,280,277,283,302,217,203,201,190,154,219,226,238,247,251,200,176,143,126,120,118,147,155,152,153,137,125,129,132,139,135,135,151,161,154,157,164,152,,,,,,,,,,,,,,,,,,,,,,,,,,,,,,,,,,,,,,,,,,,,,,,,,,,,,,,,,,,,,,,,,,,,,,,,,,,,,,,,,,,,,,,,,,,,,,,,,,,,,,,,,,,,,,,,,,,,,,,,,,,,,,,,,,,,,,,,
fingersSpread,2,1,92,115,118,122,136,150,144,141,133,123,108,93,89,92,91,87,100,107,135,132,132,147,154,131,135,146,122,125,128,146,154,164,174,196,185,181,193,181,176,170,163,172,164,165,166,189,173,187,190,224,245,272,292,298,292,273,316,333,331,319,331,284,234,283,305,302,306,332,274,265,271,289,273,289,291,266,221,220,218,222,236,223,220,202,173,140,153,142,183,208,213,206,201,175,163,157,159,157,155,132,139,137,139,120,124,125,129,134,148,144,131,137,131,136,137,156,148,148,135,131,110,,,,,,,,,,,,,,,,,,,,,,,,,,,,,,,,,,,,,,,,,,,,,,,,,,,,,,,,,,,,,,,,,,,,,,,,,,,,,,,,,,,,,,,,,,,,,,,,,,,,,,,,,,,,,,,,,,,,,,,,,
fingersSpread,2,2,124,137,115,108,107,115,115,122,122,129,126,115,130,135,141,147,146,125,116,101,87,81,88,118,144,154,157,156,133,110,117,130,149,156,161,163,167,164,204,216,226,231,230,215,245,258,283,287,290,258,249,300,375,392,424,451,426,406,388,398,389,394,350,349,316,276,225,231,233,207,217,226,223,229,229,225,219,221,193,180,173,154,124,138,144,134,141,155,138,148,156,161,148,146,142,132,124,125,139,123,140,152,153,140,137,130,130,149,155,169,171,171,161,164,,,,,,,,,,,,,,,,,,,,,,,,,,,,,,,,,,,,,,,,,,,,,,,,,,,,,,,,,,,,,,,,,,,,,,,,,,,,,,,,,,,,,,,,,,,,,,,,,,,,,,,,,,,,,,,,,,,,,,,,,,,,,,,,
fingersSpread,2,3,105,123,106,109,102,114,108,111,107,113,103,107,113,132,139,155,179,190,191,188,188,162,197,196,199,202,196,142,130,149,155,172,196,211,204,207,209,188,205,203,185,174,187,173,198,199,228,261,279,281,289,293,281,284,283,281,265,253,228,239,239,255,239,227,210,216,215,227,238,234,221,196,180,243,245,247,241,243,188,160,195,194,186,174,185,134,145,160,148,164,173,175,163,174,144,147,141,147,158,162,152,168,166,136,142,137,113,107,,,,,,,,,,,,,,,,,,,,,,,,,,,,,,,,,,,,,,,,,,,,,,,,,,,,,,,,,,,,,,,,,,,,,,,,,,,,,,,,,,,,,,,,,,,,,,,,,,,,,,,,,,,,,,,,,,,,,,,,,,,,,,,,,,,,,,
fingersSpread,2,4,192,174,178,179,163,138,149,136,139,143,155,152,162,180,185,170,169,182,185,206,207,206,191,177,148,156,159,147,138,141,133,118,142,161,145,146,161,145,130,154,158,150,150,189,185,186,199,220,193,184,186,191,164,165,169,172,173,265,256,266,277,271,193,205,189,188,197,204,200,199,176,157,144,139,147,161,208,218,220,228,232,195,208,230,210,202,206,184,189,216,217,209,240,213,184,189,225,181,179,184,167,125,121,127,134,146,133,145,156,150,136,149,141,143,142,144,137,136,115,124,137,145,144,148,171,174,167,163,179,165,157,166,166,176,164,153,139,145,103,95,99,105,106,103,,,,,,,,,,,,,,,,,,,,,,,,,,,,,,,,,,,,,,,,,,,,,,,,,,,,,,,,,,,,,,,,,,,,,,,,,,,,,,,,,,,,,,,,,,,,,,,,,,
fingersSpread,2,5,147,145,156,156,145,125,135,140,134,123,127,122,117,119,121,118,111,87,80,72,65,60,67,89,96,93,98,116,114,111,122,151,160,163,176,187,167,152,148,172,192,258,272,295,284,261,218,270,253,260,271,266,206,203,220,218,223,229,242,212,239,240,230,236,249,236,263,274,290,296,309,274,275,254,244,229,303,300,310,326,413,411,411,407,421,340,300,290,272,307,292,271,273,269,190,194,193,197,196,180,183,174,153,151,141,117,119,119,107,93,78,106,118,133,137,135,122,124,117,132,171,180,191,187,170,143,127,104,117,,,,,,,,,,,,,,,,,,,,,,,,,,,,,,,,,,,,,,,,,,,,,,,,,,,,,,,,,,,,,,,,,,,,,,,,,,,,,,,,,,,,,,,,,,,,,,,,,,,,,,,,,,,,,,,,,
fingersSpread,2,6,106,112,121,142,140,145,165,162,140,149,147,125,124,120,122,134,128,127,120,107,102,105,107,109,137,138,148,146,148,171,169,166,166,166,117,114,117,183,183,191,219,222,190,197,197,189,194,188,207,236,220,215,241,221,203,250,255,235,296,307,276,298,304,269,265,282,269,268,252,240,222,204,192,240,234,245,273,266,253,284,281,272,286,270,226,203,183,194,178,181,182,183,202,203,208,236,247,208,199,191,158,129,137,134,163,160,177,173,170,148,163,150,134,147,162,172,177,186,181,166,138,134,122,141,176,181,196,203,190,160,162,139,146,144,134,,,,,,,,,,,,,,,,,,,,,,,,,,,,,,,,,,,,,,,,,,,,,,,,,,,,,,,,,,,,,,,,,,,,,,,,,,,,,,,,,,,,,,,,,,,,,,,,,,,,,,,,,,,
fingersSpread,2,7,117,126,114,113,106,125,129,137,158,164,166,162,153,139,130,120,124,132,129,138,122,117,105,111,106,121,116,126,120,136,123,133,138,160,161,166,158,151,159,150,164,195,192,167,167,147,97,126,128,143,165,168,154,168,159,152,162,166,162,154,169,172,166,155,156,135,124,136,148,143,149,165,161,197,220,275,424,447,454,452,429,293,285,271,278,262,249,220,186,167,166,167,194,213,259,299,326,406,522,526,545,534,497,414,412,505,509,510,531,513,557,602,582,534,546,373,274,255,256,219,177,168,162,150,159,147,147,145,126,83,91,92,96,113,139,145,148,,,,,,,,,,,,,,,,,,,,,,,,,,,,,,,,,,,,,,,,,,,,,,,,,,,,,,,,,,,,,,,,,,,,,,,,,,,,,,,,,,,,,,,,,,,,,,,,,,,,,,,,,
fingersSpread,2,8,106,101,101,99,95,102,119,120,124,124,130,130,130,135,116,102,96,96,107,115,119,110,122,110,113,106,114,96,86,110,146,193,203,210,202,191,141,129,122,109,85,83,97,103,109,125,132,139,148,151,142,134,117,104,106,116,143,171,217,214,222,227,227,207,255,283,307,316,312,313,281,260,249,259,228,238,235,274,266,253,260,253,201,213,213,220,215,206,185,187,157,156,163,181,192,200,208,203,194,180,170,192,202,192,186,190,155,168,166,175,158,160,136,134,130,145,130,135,144,139,128,163,153,138,152,158,125,123,125,158,180,177,185,211,181,153,160,166,136,,,,,,,,,,,,,,,,,,,,,,,,,,,,,,,,,,,,,,,,,,,,,,,,,,,,,,,,,,,,,,,,,,,,,,,,,,,,,,,,,,,,,,,,,,,,,,,,,,,,,,,
fingersSpread,2,9,147,152,163,157,163,132,166,173,182,191,195,176,189,206,204,206,196,169,201,199,194,198,208,147,132,125,123,112,115,124,126,124,125,122,114,101,84,76,91,100,136,146,157,156,162,146,147,135,140,128,145,156,161,149,147,174,161,157,168,175,138,136,137,159,181,172,183,196,185,168,192,189,192,180,233,250,264,257,278,244,206,212,234,218,216,239,221,255,280,292,324,333,332,314,320,283,275,242,282,319,342,363,384,360,313,324,299,251,242,254,202,212,211,223,216,225,209,208,214,196,173,168,165,155,162,152,153,155,124,102,113,121,110,112,116,119,104,134,132,124,123,126,124,136,,,,,,,,,,,,,,,,,,,,,,,,,,,,,,,,,,,,,,,,,,,,,,,,,,,,,,,,,,,,,,,,,,,,,,,,,,,,,,,,,,,,,,,,,,,,,,,,,,
waveOut,2,0,122,115,120,110,130,130,143,143,156,140,144,137,141,123,117,126,126,112,116,117,105,98,117,134,143,148,183,216,220,244,260,290,323,376,367,431,430,480,585,649,671,789,837,934,1019,1038,1005,953,891,774,764,910,1030,1011,1028,998,846,835,859,895,926,981,837,737,671,614,474,487,511,503,482,441,438,344,270,238,240,200,202,200,198,179,173,163,163,166,168,166,157,146,153,144,136,124,109,107,113,110,103,89,,,,,,,,,,,,,,,,,,,,,,,,,,,,,,,,,,,,,,,,,,,,,,,,,,,,,,,,,,,,,,,,,,,,,,,,,,,,,,,,,,,,,,,,,,,,,,,,,,,,,,,,,,,,,,,,,,,,,,,,,,,,,,,,,,,,,,,,,,,,,,
waveOut,2,1,124,145,147,149,146,136,111,109,126,143,132,135,151,151,135,132,127,144,152,153,157,169,163,148,149,155,210,235,335,387,409,471,473,497,496,513,448,527,513,624,729,775,722,719,672,689,875,1084,1172,1176,1142,1036,846,894,958,1013,1071,1126,1031,1007,960,873,802,829,787,821,871,924,856,836,758,726,686,684,696,687,711,654,634,586,597,494,459,424,402,326,244,262,323,316,314,301,279,199,187,163,163,167,159,165,174,142,140,143,154,138,187,212,215,204,206,168,140,133,144,159,152,151,149,,,,,,,,,,,,,,,,,,,,,,,,,,,,,,,,,,,,,,,,,,,,,,,,,,,,,,,,,,,,,,,,,,,,,,,,,,,,,,,,,,,,,,,,,,,,,,,,,,,,,,,,,,,,,,,,,,,,,,,,,,,
waveOut,2,2,123,120,116,124,124,135,139,140,139,158,136,132,139,146,120,124,127,111,89,106,113,140,201,242,259,290,308,342,371,363,376,426,407,404,511,592,605,722,741,832,812,838,815,852,806,869,870,863,857,829,790,872,930,911,971,989,907,836,848,801,793,798,780,747,753,784,754,788,837,783,760,803,840,772,787,738,754,664,689,618,583,599,671,688,725,756,669,584,539,539,549,591,641,694,697,676,616,560,513,455,381,362,293,203,177,179,170,163,151,176,149,149,151,209,216,205,206,201,148,97,135,132,135,124,136,106,132,138,135,132,131,,,,,,,,,,,,,,,,,,,,,,,,,,,,,,,,,,,,,,,,,,,,,,,,,,,,,,,,,,,,,,,,,,,,,,,,,,,,,,,,,,,,,,,,,,,,,,,,,,,,,,,,,,,,,,,
waveOut,2,3,133,135,163,164,152,120,130,98,101,108,142,149,152,166,176,154,140,136,122,102,114,116,118,130,128,115,116,146,133,136,138,140,137,163,181,195,204,210,211,240,261,320,337,359,373,379,435,429,465,510,540,503,584,639,640,703,806,833,844,841,833,739,691,609,608,601,633,632,675,710,711,712,724,714,650,647,654,719,683,670,610,547,362,342,332,279,239,208,193,186,187,177,183,178,186,177,161,158,180,159,154,149,127,89,102,151,154,155,179,180,146,168,171,143,131,140,125,133,147,149,137,144,148,140,,,,,,,,,,,,,,,,,,,,,,,,,,,,,,,,,,,,,,,,,,,,,,,,,,,,,,,,,,,,,,,,,,,,,,,,,,,,,,,,,,,,,,,,,,,,,,,,,,,,,,,,,,,,,,,,,,,,,,
waveOut,2,4,87,94,114,126,169,196,198,182,177,144,126,139,149,146,159,159,149,136,144,130,120,128,132,134,134,155,150,156,163,159,137,130,131,133,161,163,163,170,160,138,157,156,159,163,168,160,179,160,174,195,226,214,223,221,196,180,203,212,224,258,258,160,179,160,409,503,645,734,772,727,868,914,933,926,962,937,880,866,922,951,874,928,963,956,904,862,760,676,630,645,712,723,733,742,816,792,816,807,780,763,795,821,780,759,645,517,311,279,234,204,180,160,163,159,144,138,148,126,106,114,113,125,143,147,143,142,114,100,93,95,107,115,101,98,92,90,114,114,,,,,,,,,,,,,,,,,,,,,,,,,,,,,,,,,,,,,,,,,,,,,,,,,,,,,,,,,,,,,,,,,,,,,,,,,,,,,,,,,,,,,,,,,,,,,,,,,,,,,,,,
waveOut,2,5,153,170,186,166,184,193,181,160,172,147,138,124,132,115,118,120,127,124,125,132,150,140,131,132,128,97,107,136,163,163,162,165,144,142,225,232,246,258,256,200,211,212,222,233,263,270,323,374,422,494,497,500,524,525,493,555,535,577,661,682,681,717,705,655,662,652,664,739,813,945,1073,1091,1058,1032,958,856,884,876,879,790,798,757,724,628,623,519,460,441,590,600,601,609,580,419,383,369,282,310,319,338,308,326,276,240,204,200,147,124,137,156,158,167,185,183,180,173,181,160,141,121,113,75,97,131,135,134,139,138,,,,,,,,,,,,,,,,,,,,,,,,,,,,,,,,,,,,,,,,,,,,,,,,,,,,,,,,,,,,,,,,,,,,,,,,,,,,,,,,,,,,,,,,,,,,,,,,,,,,,,,,,,,,,,,,,,
waveOut,2,6,144,146,134,146,149,164,168,177,155,153,152,143,131,136,137,132,120,130,126,119,119,118,110,117,158,194,222,232,263,245,229,208,204,187,271,332,351,489,557,626,728,763,771,795,779,787,812,767,757,768,685,686,696,682,688,705,650,661,690,641,651,674,645,614,588,554,533,564,570,659,649,709,879,882,830,896,866,714,746,742,687,738,735,737,804,805,741,721,651,559,513,596,573,582,623,601,506,457,462,397,373,367,380,300,322,378,425,427,421,371,317,204,168,177,178,171,169,154,141,140,173,204,203,218,235,214,194,217,211,203,193,175,162,183,213,226,227,,,,,,,,,,,,,,,,,,,,,,,,,,,,,,,,,,,,,,,,,,,,,,,,,,,,,,,,,,,,,,,,,,,,,,,,,,,,,,,,,,,,,,,,,,,,,,,,,,,,,,,,,
waveOut,2,7,159,172,159,136,129,129,119,127,152,149,145,139,150,136,135,134,144,127,122,120,115,111,119,143,143,143,144,170,169,203,209,232,217,229,213,220,218,239,218,241,259,258,290,315,375,426,465,466,491,499,540,580,607,623,647,586,543,570,627,615,638,643,654,559,510,598,601,568,560,588,459,442,371,516,532,590,640,716,730,700,672,764,773,716,751,747,650,749,777,941,1013,1049,938,902,711,594,565,541,588,632,750,774,802,829,871,844,763,813,889,824,790,795,789,615,612,590,619,673,693,651,627,578,369,285,314,297,253,250,258,216,216,209,219,222,199,154,161,147,147,150,151,137,134,128,123,120,131,126,111,117,111,128,126,122,116,139,132,142,163,181,,,,,,,,,,,,,,,,,,,,,,,,,,,,,,,,,,,,,,,,,,,,,,,,,,,,,,,,,,,,,,,,,,,,,,,,,,,,,,,,,,
waveOut,2,8,150,143,132,125,149,132,128,128,129,132,152,161,165,162,152,154,150,153,157,148,126,137,133,144,151,149,186,215,223,268,303,287,322,445,505,520,544,550,548,523,619,689,779,889,1016,1096,1095,1089,1097,1084,1032,1056,1015,1023,1028,946,1011,1034,910,843,991,922,891,944,986,932,897,933,884,861,865,843,803,814,712,599,581,590,626,618,658,642,594,495,465,330,303,268,220,214,198,188,201,214,188,170,179,162,114,124,165,169,180,179,178,140,119,100,105,163,177,181,183,176,124,102,100,99,94,124,165,172,173,183,174,147,145,145,152,167,,,,,,,,,,,,,,,,,,,,,,,,,,,,,,,,,,,,,,,,,,,,,,,,,,,,,,,,,,,,,,,,,,,,,,,,,,,,,,,,,,,,,,,,,,,,,,,,,,,,,,,,,,,,,,,,
waveOut,2,9,81,96,104,106,125,117,112,123,121,103,106,103,79,77,78,73,87,117,122,130,140,137,116,109,101,87,76,65,86,89,107,109,118,127,127,117,118,111,93,90,95,95,94,97,101,105,132,154,198,209,249,255,265,296,418,453,643,707,723,675,647,490,460,454,507,579,666,792,850,890,920,940,817,809,767,712,614,620,564,576,571,551,577,680,635,655,720,837,861,978,991,983,1002,953,920,902,957,910,869,819,817,814,738,792,830,850,817,846,825,804,826,786,866,874,844,793,774,638,606,545,499,458,396,275,301,298,286,303,299,269,252,242,226,263,292,310,316,285,237,205,198,187,180,178,150,112,109,97,98,98,102,109,136,152,155,162,177,192,182,183,181,168,127,111,105,92,107,,,,,,,,,,,,,,,,,,,,,,,,,,,,,,,,,,,,,,,,,,,,,,,,,,,,,,,,,,,,,,,,,,,,,,,,,,,
waveIn,2,0,91,89,73,83,110,109,116,108,98,79,87,79,84,94,86,95,100,102,97,106,92,92,97,105,96,103,120,119,113,115,116,112,114,114,119,123,107,106,104,106,104,104,98,106,93,87,93,100,92,99,96,101,95,101,109,107,118,120,113,99,102,81,73,95,103,106,104,108,93,83,72,78,76,117,125,129,135,160,166,184,198,195,207,212,217,209,203,177,142,102,91,91,80,77,80,92,98,100,95,98,85,89,96,94,95,102,95,92,112,106,102,105,104,86,86,,,,,,,,,,,,,,,,,,,,,,,,,,,,,,,,,,,,,,,,,,,,,,,,,,,,,,,,,,,,,,,,,,,,,,,,,,,,,,,,,,,,,,,,,,,,,,,,,,,,,,,,,,,,,,,,,,,,,,,,,,,,,,,
waveIn,2,1,79,85,85,81,87,84,84,89,107,102,99,100,92,81,103,117,113,117,122,121,114,128,143,141,126,123,121,98,87,86,82,59,59,60,62,61,62,63,61,56,58,54,60,61,61,60,77,78,79,92,109,105,109,112,122,122,131,128,127,111,106,103,97,96,101,94,82,113,128,130,138,145,138,124,129,115,105,83,82,67,71,70,73,78,80,100,133,133,139,146,155,132,140,161,223,239,238,250,243,183,142,144,131,120,112,123,124,107,102,125,126,122,125,129,111,100,101,115,111,118,123,128,124,141,140,140,143,129,101,102,100,100,111,136,151,145,141,150,134,124,144,,,,,,,,,,,,,,,,,,,,,,,,,,,,,,,,,,,,,,,,,,,,,,,,,,,,,,,,,,,,,,,,,,,,,,,,,,,,,,,,,,,,,,,,,,,,,,,,,,,,,
waveIn,2,2,107,100,104,106,92,88,97,100,94,90,86,87,94,104,102,103,96,81,69,73,76,88,88,94,88,87,75,88,91,91,87,96,89,88,96,97,96,97,109,115,129,134,139,138,132,119,109,107,92,93,100,121,129,131,134,143,121,117,127,129,123,131,132,128,130,131,129,119,114,119,113,108,107,104,94,139,144,144,141,136,83,70,75,69,73,99,106,120,133,137,120,150,159,154,155,187,193,185,199,207,180,149,154,141,134,135,128,102,105,104,136,149,158,154,147,114,101,100,92,94,92,105,104,,,,,,,,,,,,,,,,,,,,,,,,,,,,,,,,,,,,,,,,,,,,,,,,,,,,,,,,,,,,,,,,,,,,,,,,,,,,,,,,,,,,,,,,,,,,,,,,,,,,,,,,,,,,,,,,,,,,,,,
waveIn,2,3,145,155,143,124,126,133,115,136,142,144,155,158,140,134,136,123,115,105,104,103,104,99,95,87,66,53,74,93,121,131,135,125,112,97,90,104,108,117,114,119,107,117,116,116,117,118,114,115,114,111,124,135,132,139,137,134,125,129,129,143,145,156,163,162,162,159,145,138,142,132,134,142,135,123,114,113,115,122,117,116,103,78,61,65,60,58,58,53,44,42,69,87,90,101,131,133,133,133,130,123,149,150,158,155,142,105,105,91,103,115,120,110,124,152,145,140,140,129,116,115,,,,,,,,,,,,,,,,,,,,,,,,,,,,,,,,,,,,,,,,,,,,,,,,,,,,,,,,,,,,,,,,,,,,,,,,,,,,,,,,,,,,,,,,,,,,,,,,,,,,,,,,,,,,,,,,,,,,,,,,,,
waveIn,2,4,142,141,136,143,149,135,126,129,128,127,122,114,110,103,83,74,72,75,75,76,83,106,135,136,134,131,111,69,66,63,55,60,59,51,57,55,47,51,50,61,68,73,71,77,74,73,73,94,93,94,101,114,106,112,120,119,119,130,137,136,142,136,120,109,112,111,115,122,126,139,144,144,142,142,144,134,130,133,130,113,116,122,126,126,121,119,113,103,125,122,120,122,128,113,106,106,100,90,82,87,85,88,90,90,98,101,96,94,93,85,79,77,73,66,60,53,50,43,41,34,40,54,82,124,157,213,220,237,222,202,169,183,169,165,172,153,135,124,144,156,153,170,161,150,137,144,141,159,,,,,,,,,,,,,,,,,,,,,,,,,,,,,,,,,,,,,,,,,,,,,,,,,,,,,,,,,,,,,,,,,,,,,,,,,,,,,,,,,,,,,,,,,,,,,,
waveIn,2,5,95,89,96,114,161,165,166,171,170,130,128,134,125,114,119,129,107,117,120,124,118,130,122,120,113,124,127,135,145,156,161,157,152,142,161,149,145,143,143,108,98,96,90,90,81,78,69,74,69,68,69,76,65,64,73,77,82,89,86,84,114,120,139,154,166,152,150,134,134,121,118,120,115,108,107,121,116,126,141,148,136,149,152,165,164,171,173,181,170,174,172,154,152,135,132,136,139,123,118,102,93,95,85,79,84,77,68,70,75,70,87,110,153,244,273,316,311,342,298,287,290,300,256,249,246,195,187,176,171,161,152,196,209,253,273,278,272,282,249,223,215,191,157,172,179,177,171,178,152,159,157,,,,,,,,,,,,,,,,,,,,,,,,,,,,,,,,,,,,,,,,,,,,,,,,,,,,,,,,,,,,,,,,,,,,,,,,,,,,,,,,,,,,,,,,,,,
waveIn,2,6,139,157,164,146,159,155,133,127,133,118,113,109,101,91,83,70,70,73,86,91,100,116,117,103,108,109,96,98,98,88,86,81,76,82,87,84,93,109,107,123,123,133,126,166,187,210,202,201,185,155,120,121,129,112,108,107,100,89,80,81,82,100,110,112,121,129,140,141,141,137,139,127,119,120,128,126,119,121,118,103,91,87,72,64,57,49,40,36,67,158,320,425,541,605,643,589,543,434,378,287,296,256,254,218,213,207,228,245,213,210,175,185,162,173,214,234,198,193,186,141,107,,,,,,,,,,,,,,,,,,,,,,,,,,,,,,,,,,,,,,,,,,,,,,,,,,,,,,,,,,,,,,,,,,,,,,,,,,,,,,,,,,,,,,,,,,,,,,,,,,,,,,,,,,,,,,,,,,,,,,,,,
waveIn,2,7,149,158,159,162,164,152,138,147,140,134,147,158,138,136,154,151,142,143,153,140,129,144,141,133,122,121,94,90,90,101,107,116,115,115,105,98,90,84,74,67,58,54,54,96,115,118,123,124,98,81,92,96,99,112,120,116,119,126,121,110,108,111,107,96,110,119,110,114,123,127,123,125,115,123,108,98,94,101,85,101,133,146,160,164,160,136,127,103,89,84,82,72,79,84,92,92,93,86,96,83,83,77,81,94,105,126,142,176,178,183,211,235,224,224,248,255,251,253,255,236,226,210,194,184,172,135,131,128,141,136,125,124,178,176,180,199,203,156,164,171,180,171,182,171,174,,,,,,,,,,,,,,,,,,,,,,,,,,,,,,,,,,,,,,,,,,,,,,,,,,,,,,,,,,,,,,,,,,,,,,,,,,,,,,,,,,,,,,,,,,,,,,,,,
waveIn,2,8,107,104,104,112,114,108,105,132,126,121,122,131,111,115,118,125,109,110,111,110,97,100,93,114,120,122,125,122,103,101,120,123,140,135,144,135,150,143,150,140,131,120,114,118,122,162,164,173,176,178,162,155,156,150,146,144,153,151,178,175,186,202,202,197,205,185,172,184,164,166,172,157,135,143,147,150,155,163,158,138,122,113,88,74,68,68,67,68,66,66,83,91,118,135,137,126,129,117,142,140,150,149,146,118,149,153,213,244,242,231,232,171,119,162,159,151,155,,,,,,,,,,,,,,,,,,,,,,,,,,,,,,,,,,,,,,,,,,,,,,,,,,,,,,,,,,,,,,,,,,,,,,,,,,,,,,,,,,,,,,,,,,,,,,,,,,,,,,,,,,,,,,,,,,,,,,,,,,,,,
waveIn,2,9,112,121,121,117,118,124,132,136,140,143,147,147,149,154,165,157,160,174,167,155,153,135,127,130,125,116,117,109,109,105,109,117,105,107,107,155,153,113,118,108,136,131,133,135,152,147,165,175,169,161,154,138,123,124,112,93,90,81,100,114,116,114,120,118,103,106,103,93,71,69,59,56,67,67,67,72,70,61,68,68,84,107,141,160,186,188,204,197,184,166,167,134,124,130,153,160,167,162,161,136,134,126,128,126,135,118,123,127,129,111,112,113,109,104,103,120,122,132,134,141,130,142,139,,,,,,,,,,,,,,,,,,,,,,,,,,,,,,,,,,,,,,,,,,,,,,,,,,,,,,,,,,,,,,,,,,,,,,,,,,,,,,,,,,,,,,,,,,,,,,,,,,,,,,,,,,,,,,,,,,,,,,,
doubleTap,2,0,140,141,151,147,153,166,167,170,166,160,151,147,149,147,148,139,138,163,175,173,182,181,148,134,120,105,106,108,106,110,118,128,143,153,152,154,168,157,144,144,238,336,365,385,389,354,334,304,281,284,262,172,175,176,170,172,138,132,135,146,169,167,170,184,172,148,147,137,114,105,106,109,134,142,150,142,135,125,130,135,138,146,139,128,120,131,135,142,142,139,127,123,112,108,106,122,111,120,143,158,148,151,154,137,144,162,169,163,160,144,129,128,137,139,142,149,137,120,120,119,107,113,118,151,146,145,151,156,123,120,126,136,145,148,166,168,148,129,154,148,145,156,195,192,178,170,169,126,105,113,128,160,162,156,161,158,119,114,132,147,177,212,213,231,240,221,206,214,212,235,255,256,254,301,305,315,341,339,283,257,245,233,228,259,273,312,287,295,273,291,223,229,219,212,152,156,148,152,152,131,126,117,122,134,134,132,132,133,117,123,124,115,106,113,127,148,159,157,157,150,135,136,154,157,156,155,169,157,152,150,151,132,140,145,146,154,158,148,136,162,165,150
doubleTap,2,1,186,158,133,132,136,114,113,140,139,141,165,176,153,142,132,107,119,162,166,168,165,152,110,127,128,137,126,131,116,122,128,141,151,172,184,179,172,167,145,144,138,137,140,141,165,186,248,270,277,272,269,223,228,261,288,293,360,367,487,556,580,545,538,458,363,322,358,358,298,271,263,196,170,179,178,170,167,152,123,111,120,113,108,128,135,149,144,151,160,162,148,157,155,133,131,124,120,122,125,119,110,110,103,100,107,118,119,118,111,,,,,,,,,,,,,,,,,,,,,,,,,,,,,,,,,,,,,,,,,,,,,,,,,,,,,,,,,,,,,,,,,,,,,,,,,,,,,,,,,,,,,,,,,,,,,,,,,,,,,,,,,,,,,,,,,,,,,,,,,,,,,,,,,,,,,
doubleTap,2,2,127,129,132,127,104,86,108,157,171,179,191,182,145,125,123,122,127,132,136,132,122,127,128,137,146,157,161,186,186,177,172,163,130,119,126,119,126,129,119,119,127,166,206,218,221,254,279,279,277,277,276,224,248,259,262,292,333,306,306,339,348,388,393,461,474,432,365,344,248,170,169,167,164,154,140,160,168,203,201,203,182,170,122,104,122,121,147,164,179,188,188,182,169,148,119,113,97,105,124,130,140,134,146,135,126,122,136,129,131,136,142,128,130,119,115,107,135,130,132,141,,,,,,,,,,,,,,,,,,,,,,,,,,,,,,,,,,,,,,,,,,,,,,,,,,,,,,,,,,,,,,,,,,,,,,,,,,,,,,,,,,,,,,,,,,,,,,,,,,,,,,,,,,,,,,,,,,,,,,,,,,
doubleTap,2,3,105,107,108,122,130,130,133,125,118,103,117,139,145,164,171,170,160,154,135,136,145,136,140,140,131,125,146,155,158,161,157,160,157,151,163,161,142,139,145,125,119,140,132,118,118,116,77,75,73,66,77,103,205,218,230,246,263,235,228,264,321,555,599,610,609,593,403,354,352,335,338,304,254,233,242,187,168,202,216,196,190,201,166,141,145,149,147,154,151,135,139,138,126,131,143,144,145,141,135,128,114,97,88,91,81,99,109,137,141,143,145,144,137,145,176,171,165,159,173,147,147,161,154,136,132,135,,,,,,,,,,,,,,,,,,,,,,,,,,,,,,,,,,,,,,,,,,,,,,,,,,,,,,,,,,,,,,,,,,,,,,,,,,,,,,,,,,,,,,,,,,,,,,,,,,,,,,,,,,,,,,,,,,,,
doubleTap,2,4,145,131,114,99,92,107,104,106,109,113,124,139,142,149,150,120,100,93,108,136,143,156,155,147,126,124,104,106,93,87,84,113,120,141,147,147,134,130,121,140,142,165,180,192,178,175,180,315,430,477,495,508,445,341,294,306,291,287,292,299,287,276,260,244,242,201,183,176,175,124,128,125,148,154,169,169,179,182,164,144,137,129,116,115,124,138,147,136,132,143,141,129,140,135,116,119,124,112,121,129,118,136,154,153,156,162,144,,,,,,,,,,,,,,,,,,,,,,,,,,,,,,,,,,,,,,,,,,,,,,,,,,,,,,,,,,,,,,,,,,,,,,,,,,,,,,,,,,,,,,,,,,,,,,,,,,,,,,,,,,,,,,,,,,,,,,,,,,,,,,,,,,,,,,,
doubleTap,2,6,104,123,120,145,148,143,150,156,133,130,156,148,142,158,163,135,138,136,133,134,132,140,153,141,135,135,141,142,141,141,146,120,104,104,96,96,106,116,128,137,161,188,199,202,205,185,152,186,219,213,234,244,214,170,172,155,138,156,176,204,205,198,178,157,113,98,115,109,118,125,132,130,124,132,144,159,177,182,184,169,148,117,108,81,83,80,84,108,111,111,115,119,119,129,136,131,124,118,126,133,137,138,141,137,125,129,134,121,123,140,134,155,184,193,201,211,190,164,137,128,121,,,,,,,,,,,,,,,,,,,,,,,,,,,,,,,,,,,,,,,,,,,,,,,,,,,,,,,,,,,,,,,,,,,,,,,,,,,,,,,,,,,,,,,,,,,,,,,,,,,,,,,,,,,,,,,,,,,,,,,,,
doubleTap,2,7,154,137,136,117,118,97,128,125,146,147,163,155,160,142,135,141,143,153,156,165,145,146,122,120,123,148,135,141,149,143,114,111,121,124,144,154,162,157,142,131,116,180,464,595,606,621,609,458,276,266,245,229,169,194,170,179,189,189,152,145,104,87,85,81,89,82,107,120,138,137,139,120,107,85,126,134,141,144,142,109,113,119,115,117,134,133,130,142,143,128,124,137,140,143,136,136,118,105,100,110,109,106,115,119,110,112,115,101,115,117,124,142,150,137,146,135,,,,,,,,,,,,,,,,,,,,,,,,,,,,,,,,,,,,,,,,,,,,,,,,,,,,,,,,,,,,,,,,,,,,,,,,,,,,,,,,,,,,,,,,,,,,,,,,,,,,,,,,,,,,,,,,,,,,,,,,,,,,,,
doubleTap,2,8,156,153,152,138,108,104,104,117,135,136,126,124,110,95,103,108,116,125,166,163,166,166,170,182,278,292,301,305,276,191,179,168,172,181,191,184,183,164,162,146,145,141,140,136,136,122,121,113,108,95,109,110,118,111,113,109,103,93,92,91,84,86,85,96,92,91,99,134,151,154,150,141,125,129,135,138,147,139,115,110,118,123,124,125,122,123,124,126,120,118,107,124,126,122,119,122,85,107,106,112,117,,,,,,,,,,,,,,,,,,,,,,,,,,,,,,,,,,,,,,,,,,,,,,,,,,,,,,,,,,,,,,,,,,,,,,,,,,,,,,,,,,,,,,,,,,,,,,,,,,,,,,,,,,,,,,,,,,,,,,,,,,,,,,,,,,,,,,,,,,,,,
doubleTap,2,9,118,120,153,158,163,164,164,134,129,127,154,164,196,202,196,207,197,175,196,198,174,174,180,168,178,211,219,206,197,186,147,128,129,121,132,121,134,155,179,175,182,179,159,179,208,232,251,257,226,202,173,203,488,560,578,597,593,400,294,293,264,234,227,227,177,152,156,143,132,131,132,139,140,155,167,163,153,143,127,122,128,135,148,146,135,146,160,153,171,175,164,165,165,163,161,161,133,143,140,137,132,132,116,93,91,89,97,105,105,113,127,124,135,160,165,158,154,154,263,338,380,402,416,378,317,277,266,250,212,200,258,248,254,257,264,206,201,175,155,145,135,129,138,135,135,130,123,128,135,129,139,141,125,124,126,111,105,118,118,123,118,113,123,120,117,121,137,118,115,,,,,,,,,,,,,,,,,,,,,,,,,,,,,,,,,,,,,,,,,,,,,,,,,,,,,,,,,,,,,,,,,,,,,,,,,
fist,3,0,68,70,68,66,66,61,64,73,206,227,244,244,251,161,133,106,122,114,280,353,540,731,998,1064,1129,1154,1138,1035,1101,1147,1238,1242,1275,1281,1263,1118,1118,1123,1117,1062,1140,1111,1047,973,967,989,1105,1133,1161,1168,1146,1034,1103,1159,1180,1140,1170,1031,911,921,949,899,912,924,898,858,902,880,857,901,875,778,740,657,450,339,273,285,279,308,309,332,327,307,288,273,235,188,178,157,155,144,146,141,138,134,137,118,126,117,111,105,111,112,120,125,125,118,122,110,107,107,118,100,105,,,,,,,,,,,,,,,,,,,,,,,,,,,,,,,,,,,,,,,,,,,,,,,,,,,,,,,,,,,,,,,,,,,,,,,,,,,,,,,,,,,,,,,,,,,,,,,,,,,,,,,,,,,,,,,,,,,,,,,,,,,,,,,
fist,3,1,67,70,74,65,62,65,66,68,67,83,81,78,80,79,61,65,65,64,67,64,62,63,57,57,59,68,72,67,64,65,49,62,83,89,92,104,116,110,116,119,115,111,121,144,156,164,177,188,179,182,313,377,445,575,661,800,835,912,901,976,899,877,784,807,749,828,939,941,981,1046,1083,1015,1033,990,990,944,1054,1100,1179,1168,1133,1023,990,850,696,696,640,572,534,517,355,315,276,250,271,303,298,300,303,294,256,259,235,237,205,186,201,225,206,189,193,184,163,160,165,153,131,140,147,144,131,136,144,134,134,145,136,101,97,103,83,96,97,110,96,109,107,119,112,121,,,,,,,,,,,,,,,,,,,,,,,,,,,,,,,,,,,,,,,,,,,,,,,,,,,,,,,,,,,,,,,,,,,,,,,,,,,,,,,,,,,,,,,,,,,,,,,,,,,,,,
fist,3,2,96,90,87,87,95,89,87,76,73,67,66,68,90,91,91,88,88,60,62,61,73,82,94,89,89,80,69,66,65,62,73,79,72,76,79,79,74,72,67,68,66,72,69,74,78,70,68,70,72,72,76,85,96,92,87,92,89,82,78,91,97,115,140,224,493,606,656,733,786,694,721,780,777,746,844,786,738,706,726,699,833,842,874,928,1048,1030,1081,1170,1177,1061,1042,1029,966,1037,1022,936,849,734,454,302,253,213,210,223,220,230,236,225,200,199,186,194,204,220,211,234,232,257,237,252,229,224,190,199,167,196,211,194,196,209,186,163,183,172,157,158,154,128,141,147,135,132,139,135,126,,,,,,,,,,,,,,,,,,,,,,,,,,,,,,,,,,,,,,,,,,,,,,,,,,,,,,,,,,,,,,,,,,,,,,,,,,,,,,,,,,,,,,,,,,,,,,,,,
fist,3,3,93,100,92,77,73,78,74,68,71,76,74,76,73,76,87,84,84,89,90,81,90,94,101,103,98,94,90,84,92,92,98,104,101,94,96,99,100,107,111,276,301,303,324,484,509,652,735,777,722,730,705,761,806,934,969,991,1024,1022,940,983,956,1001,990,1060,1093,1074,1075,1116,1107,976,1031,908,841,757,740,605,551,478,375,352,318,214,161,134,114,120,119,141,143,156,153,166,160,164,185,185,189,187,180,157,155,151,151,158,166,182,183,193,199,198,195,192,175,174,163,152,149,,,,,,,,,,,,,,,,,,,,,,,,,,,,,,,,,,,,,,,,,,,,,,,,,,,,,,,,,,,,,,,,,,,,,,,,,,,,,,,,,,,,,,,,,,,,,,,,,,,,,,,,,,,,,,,,,,,,,,,,,,,,,
fist,3,4,85,87,92,91,84,79,81,77,75,64,68,70,72,77,93,98,103,105,102,107,102,102,104,108,98,95,81,78,83,78,84,88,83,75,91,93,92,108,118,143,270,281,308,483,529,521,582,610,579,560,599,677,726,756,855,880,853,883,896,911,896,867,955,926,959,995,1033,947,905,751,664,676,611,595,586,544,358,233,192,158,150,140,131,141,142,153,163,178,199,218,209,205,203,180,163,159,162,159,155,153,152,148,137,142,127,123,122,124,112,108,105,107,100,102,110,104,111,107,107,95,105,96,96,90,95,115,126,125,123,119,86,64,70,74,80,94,108,105,110,108,107,104,108,108,106,94,82,92,82,90,101,105,93,95,87,81,76,73,72,72,67,64,79,94,95,105,108,97,84,87,94,96,108,112,115,97,91,,,,,,,,,,,,,,,,,,,,,,,,,,,,,,,,,,,,,,,,,,,,,,,,,,,,,,,,,,,,,,,,,
fist,3,5,78,79,80,86,78,73,80,82,85,87,93,93,92,83,91,95,89,92,95,86,78,84,80,82,79,94,90,93,84,95,88,85,83,83,68,58,78,78,81,107,121,114,115,129,115,104,109,118,102,96,101,155,230,340,377,467,510,545,591,619,606,666,652,648,735,796,805,885,970,977,988,983,1019,1018,1019,1063,1156,1238,1273,1319,1352,1267,1217,1148,1103,1011,1094,1101,1089,1055,995,930,796,747,702,723,694,630,700,703,690,647,681,570,526,497,418,329,275,214,177,170,150,122,121,121,134,143,158,163,157,142,140,137,123,125,124,112,100,126,134,139,136,131,99,75,62,73,72,73,72,83,80,90,93,93,85,82,78,74,79,86,97,106,113,111,113,103,98,96,106,98,111,103,,,,,,,,,,,,,,,,,,,,,,,,,,,,,,,,,,,,,,,,,,,,,,,,,,,,,,,,,,,,,,,,,,,,,,,,,,,,,,
fist,3,6,65,69,73,87,93,95,95,100,91,91,88,86,82,76,79,76,80,75,89,86,89,85,96,83,77,84,89,76,72,70,65,74,83,81,88,84,83,77,88,90,88,82,84,82,80,79,76,70,81,79,82,103,155,242,325,345,362,377,351,346,353,379,520,533,555,586,600,602,693,682,695,709,668,592,629,681,644,585,598,523,449,447,438,380,360,254,213,169,102,109,101,100,113,118,125,127,138,157,154,164,180,175,158,167,166,159,159,157,154,138,130,133,139,129,130,124,123,118,125,121,116,111,109,100,97,94,120,115,113,113,113,93,88,93,,,,,,,,,,,,,,,,,,,,,,,,,,,,,,,,,,,,,,,,,,,,,,,,,,,,,,,,,,,,,,,,,,,,,,,,,,,,,,,,,,,,,,,,,,,,,,,,,,,,,,,,,,,,
fist,3,7,106,103,100,98,68,60,66,64,74,66,69,64,92,87,86,87,96,76,74,80,84,80,74,82,75,65,56,63,52,58,62,69,65,79,80,77,79,81,67,78,87,110,110,110,99,96,60,71,80,84,86,87,85,86,87,87,92,90,88,91,118,128,198,280,287,294,350,332,479,644,703,803,923,865,815,783,702,591,588,542,551,549,530,497,483,477,451,447,476,480,474,447,386,343,280,216,179,175,136,119,94,85,84,87,81,90,113,116,117,133,141,137,137,147,145,144,158,161,159,160,153,147,146,147,142,151,132,145,139,139,139,138,123,119,133,123,127,130,127,110,102,,,,,,,,,,,,,,,,,,,,,,,,,,,,,,,,,,,,,,,,,,,,,,,,,,,,,,,,,,,,,,,,,,,,,,,,,,,,,,,,,,,,,,,,,,,,,,,,,,,,,
fist,3,8,78,91,97,89,89,103,94,90,92,100,97,95,95,100,97,82,82,86,72,68,70,68,61,78,83,81,87,91,76,73,95,99,99,108,115,99,92,91,84,80,77,71,67,66,61,64,69,77,97,104,103,99,94,73,53,56,59,58,56,76,86,92,102,123,155,233,306,321,347,337,358,308,317,325,355,404,439,533,668,707,680,695,720,666,720,797,768,735,684,609,490,562,536,525,495,474,409,366,336,305,288,230,154,123,90,99,118,116,127,133,145,143,144,142,144,158,156,164,183,190,178,174,175,153,152,146,153,148,162,154,146,157,160,147,145,152,129,112,101,96,98,94,,,,,,,,,,,,,,,,,,,,,,,,,,,,,,,,,,,,,,,,,,,,,,,,,,,,,,,,,,,,,,,,,,,,,,,,,,,,,,,,,,,,,,,,,,,,,,,,,,,,
fist,3,9,76,78,77,89,96,84,81,84,77,65,70,69,66,63,70,71,71,75,83,77,71,93,90,78,82,91,69,73,74,73,66,72,68,88,98,96,92,92,73,55,61,68,69,80,90,137,330,375,457,502,585,609,629,726,752,819,832,845,788,826,797,823,852,907,916,913,937,941,916,889,930,894,881,858,820,705,593,510,381,318,231,198,145,145,130,114,120,104,103,102,120,120,134,133,132,124,122,129,121,129,153,153,136,133,127,123,129,135,140,143,114,108,109,115,106,122,117,111,113,140,130,134,133,121,90,124,133,,,,,,,,,,,,,,,,,,,,,,,,,,,,,,,,,,,,,,,,,,,,,,,,,,,,,,,,,,,,,,,,,,,,,,,,,,,,,,,,,,,,,,,,,,,,,,,,,,,,,,,,,,,,,,,,,,,
fingersSpread,3,0,110,112,111,104,94,90,89,110,103,97,102,101,71,68,68,66,62,65,93,140,189,225,267,318,412,442,454,498,500,464,483,491,473,493,468,454,448,427,394,401,372,379,365,343,391,433,419,445,450,424,424,428,419,422,380,307,324,274,254,293,292,238,244,266,220,204,188,179,122,111,112,113,113,114,108,101,106,96,77,67,83,82,127,134,132,131,132,99,99,101,86,80,78,72,89,,,,,,,,,,,,,,,,,,,,,,,,,,,,,,,,,,,,,,,,,,,,,,,,,,,,,,,,,,,,,,,,,,,,,,,,,,,,,,,,,,,,,,,,,,,,,,,,,,,,,,,,,,,,,,,,,,,,,,,,,,,,,,,,,,,,,,,,,,,,,,,,,,,
fingersSpread,3,1,79,75,74,75,92,80,78,91,100,86,87,90,84,68,62,57,66,73,78,86,94,105,101,119,126,137,170,186,197,215,216,222,231,247,244,276,289,333,373,393,410,452,440,455,461,472,431,434,395,464,455,483,497,512,477,511,511,481,515,504,449,492,487,449,457,480,426,449,442,426,428,387,357,431,432,401,395,398,274,211,194,191,186,176,167,146,137,112,107,96,84,85,83,84,88,93,92,99,84,82,83,87,89,101,96,91,96,90,,,,,,,,,,,,,,,,,,,,,,,,,,,,,,,,,,,,,,,,,,,,,,,,,,,,,,,,,,,,,,,,,,,,,,,,,,,,,,,,,,,,,,,,,,,,,,,,,,,,,,,,,,,,,,,,,,,,,,,,,,,,,,,,,,,,,,
fingersSpread,3,2,68,76,85,82,83,96,89,90,109,108,94,99,107,92,87,88,88,73,79,81,79,79,88,89,104,121,163,187,210,252,254,247,289,296,276,305,307,274,279,291,286,329,342,358,379,386,345,333,387,423,504,553,568,537,502,456,433,483,473,538,558,590,563,618,607,567,542,520,487,438,435,451,449,447,464,479,451,448,466,495,468,473,513,485,412,446,430,366,312,298,224,162,154,135,136,125,118,103,108,177,205,209,210,213,162,124,116,108,97,94,91,90,91,92,74,60,67,64,67,67,70,68,,,,,,,,,,,,,,,,,,,,,,,,,,,,,,,,,,,,,,,,,,,,,,,,,,,,,,,,,,,,,,,,,,,,,,,,,,,,,,,,,,,,,,,,,,,,,,,,,,,,,,,,,,,,,,,,,,,,,,,,
fingersSpread,3,3,76,67,95,103,98,105,119,103,97,105,91,80,81,89,81,80,124,131,128,131,150,119,114,112,113,110,117,112,126,146,159,157,170,172,172,161,190,222,268,273,300,296,294,276,287,299,341,343,333,360,359,337,337,344,315,307,306,359,375,390,383,403,384,385,382,414,387,356,384,436,413,412,440,414,362,391,396,412,417,406,372,386,329,296,296,323,323,352,345,336,303,277,219,228,241,248,224,226,214,178,129,121,113,98,96,94,99,98,133,137,140,136,154,133,122,126,125,103,100,103,95,100,90,82,86,,,,,,,,,,,,,,,,,,,,,,,,,,,,,,,,,,,,,,,,,,,,,,,,,,,,,,,,,,,,,,,,,,,,,,,,,,,,,,,,,,,,,,,,,,,,,,,,,,,,,,,,,,,,,,,,,,,,,
fingersSpread,3,4,65,82,82,81,83,85,71,78,85,91,95,104,95,92,102,96,89,89,90,75,77,85,86,88,98,121,122,151,155,175,176,210,220,247,241,256,253,265,315,317,309,317,315,263,298,300,341,335,355,423,473,489,481,463,388,341,272,323,352,420,488,519,520,539,508,439,407,413,363,341,346,342,289,288,262,232,211,203,178,165,149,147,136,135,135,143,111,121,130,125,116,125,117,117,124,120,111,115,116,115,117,116,115,112,102,105,103,94,94,102,102,109,106,,,,,,,,,,,,,,,,,,,,,,,,,,,,,,,,,,,,,,,,,,,,,,,,,,,,,,,,,,,,,,,,,,,,,,,,,,,,,,,,,,,,,,,,,,,,,,,,,,,,,,,,,,,,,,,,,,,,,,,,,,,,,,,,,
fingersSpread,3,5,77,85,76,69,71,90,91,93,99,107,88,78,79,80,68,74,77,79,68,89,93,89,103,108,99,112,116,101,101,115,111,117,124,145,168,198,228,233,235,232,239,253,273,303,411,411,439,490,517,484,521,569,602,597,587,615,588,550,523,621,566,539,514,513,384,378,410,462,471,542,552,560,548,576,508,529,492,450,464,434,404,390,430,412,408,391,418,429,413,444,442,439,391,356,329,340,326,325,351,409,406,398,393,364,284,273,230,202,179,167,138,145,122,115,128,131,138,137,158,,,,,,,,,,,,,,,,,,,,,,,,,,,,,,,,,,,,,,,,,,,,,,,,,,,,,,,,,,,,,,,,,,,,,,,,,,,,,,,,,,,,,,,,,,,,,,,,,,,,,,,,,,,,,,,,,,,,,,,,,,,
fingersSpread,3,6,101,106,84,82,87,84,83,98,96,89,96,94,79,87,86,86,96,100,105,109,106,95,99,85,87,86,78,68,78,85,81,92,95,106,103,112,119,135,125,135,142,141,134,138,137,139,141,155,181,251,272,282,307,348,368,453,488,495,527,492,477,465,498,468,486,486,525,573,564,554,514,457,408,448,440,437,468,426,378,422,472,476,465,469,453,407,372,391,428,412,433,443,468,412,415,373,354,273,276,258,237,272,281,282,295,305,248,228,212,192,169,170,172,168,144,149,141,178,179,171,160,158,103,94,97,101,99,96,86,70,66,87,98,95,98,106,98,88,92,95,103,,,,,,,,,,,,,,,,,,,,,,,,,,,,,,,,,,,,,,,,,,,,,,,,,,,,,,,,,,,,,,,,,,,,,,,,,,,,,,,,,,,,,,,,,,,,,,,,,,,,,
fingersSpread,3,7,186,198,227,241,310,362,389,390,398,406,422,470,473,473,465,457,419,420,465,494,507,500,549,520,529,538,573,515,542,513,440,417,438,440,456,476,487,507,476,497,500,476,441,455,380,370,402,447,448,511,503,467,434,431,360,357,340,413,389,373,371,359,229,246,238,226,219,232,174,160,154,150,114,109,105,96,97,104,111,120,125,127,110,102,94,86,89,111,122,129,133,145,133,125,117,129,,,,,,,,,,,,,,,,,,,,,,,,,,,,,,,,,,,,,,,,,,,,,,,,,,,,,,,,,,,,,,,,,,,,,,,,,,,,,,,,,,,,,,,,,,,,,,,,,,,,,,,,,,,,,,,,,,,,,,,,,,,,,,,,,,,,,,,,,,,,,,,,,,
fingersSpread,3,8,119,109,114,116,107,100,106,100,101,103,112,102,101,99,103,96,99,98,102,88,88,86,79,73,81,87,87,85,99,101,96,92,96,95,81,87,108,126,130,145,141,143,142,138,137,150,179,213,264,269,298,333,332,350,385,380,368,385,337,306,313,297,340,364,368,454,461,445,462,562,501,498,486,480,384,409,401,417,436,419,413,419,376,326,322,276,256,247,234,205,185,163,154,145,136,137,143,136,131,125,98,104,130,142,137,139,138,124,110,140,139,130,122,142,113,108,127,131,110,109,,,,,,,,,,,,,,,,,,,,,,,,,,,,,,,,,,,,,,,,,,,,,,,,,,,,,,,,,,,,,,,,,,,,,,,,,,,,,,,,,,,,,,,,,,,,,,,,,,,,,,,,,,,,,,,,,,,,,,,,,,
fingersSpread,3,9,72,77,81,85,93,95,107,112,103,100,115,102,97,121,122,106,110,115,96,87,92,87,85,105,109,103,99,93,67,85,95,97,96,107,90,83,84,87,69,66,79,98,99,95,111,104,86,85,109,98,97,105,104,84,78,77,80,85,87,102,104,92,86,87,79,90,105,117,129,156,173,180,184,179,183,204,200,219,240,240,257,260,292,306,328,324,381,370,411,403,434,421,407,374,373,324,322,401,391,424,443,424,373,390,369,391,429,427,418,414,385,343,326,365,388,400,410,427,390,359,354,346,325,314,290,244,221,215,186,177,189,176,152,152,149,115,100,99,116,123,120,117,108,86,75,74,100,108,115,116,125,109,103,88,82,79,77,79,80,86,92,92,87,,,,,,,,,,,,,,,,,,,,,,,,,,,,,,,,,,,,,,,,,,,,,,,,,,,,,,,,,,,,,,,,,,,,,,,,,,,,,,,
waveOut,3,0,78,77,70,76,84,75,80,82,80,75,88,85,88,91,93,84,83,81,75,71,84,88,82,116,148,179,260,280,389,454,524,633,739,811,811,71,84,849,884,876,975,1040,1074,1115,1142,1087,1001,1036,1006,950,930,944,897,904,893,839,805,730,659,650,612,604,584,573,576,667,791,841,855,876,845,722,677,756,704,708,788,858,806,895,902,809,813,846,784,792,893,858,884,893,868,767,840,726,676,657,665,473,435,412,333,300,283,274,263,259,150,120,109,150,150,161,160,160,119,122,111,108,100,123,122,119,119,125,120,114,115,111,103,,,,,,,,,,,,,,,,,,,,,,,,,,,,,,,,,,,,,,,,,,,,,,,,,,,,,,,,,,,,,,,,,,,,,,,,,,,,,,,,,,,,,,,,,,,,,,,,,,,,,,,,,,,,,,,,,
waveOut,3,1,64,62,59,92,96,97,96,98,97,100,102,110,112,100,101,103,179,204,202,212,219,237,229,242,250,285,281,299,400,467,467,511,555,540,515,560,573,571,536,582,648,624,643,656,647,580,575,546,558,572,565,595,591,658,684,718,747,820,815,799,830,782,712,669,664,632,650,653,670,616,599,629,686,720,755,726,716,691,669,681,719,696,762,773,795,787,792,689,653,674,610,579,552,487,306,298,263,239,232,204,202,179,189,173,171,160,148,120,117,111,110,94,105,115,117,109,108,96,86,79,102,108,121,134,154,135,130,140,132,111,113,112,86,76,87,91,,,,,,,,,,,,,,,,,,,,,,,,,,,,,,,,,,,,,,,,,,,,,,,,,,,,,,,,,,,,,,,,,,,,,,,,,,,,,,,,,,,,,,,,,,,,,,,,,,,,,,,,,,
waveOut,3,2,73,70,63,78,82,86,110,121,111,105,102,86,73,99,108,119,115,137,128,128,123,133,153,148,152,191,192,168,174,181,183,232,323,378,442,449,472,494,527,538,546,600,590,601,580,603,585,600,582,594,732,832,925,913,1004,983,983,900,944,921,904,857,890,911,877,867,839,792,843,830,848,888,958,976,1026,1042,1105,1178,1095,1142,1159,1163,1054,1132,1085,1050,977,986,948,924,950,925,931,910,907,877,921,929,926,979,929,885,903,858,716,670,605,423,366,346,379,347,346,325,314,253,209,187,182,148,153,151,152,140,157,150,144,140,148,140,154,161,162,165,160,144,132,140,145,145,148,150,145,126,111,106,,,,,,,,,,,,,,,,,,,,,,,,,,,,,,,,,,,,,,,,,,,,,,,,,,,,,,,,,,,,,,,,,,,,,,,,,,,,,,,,,,,,,,,,,,,,,,,,
waveOut,3,3,101,101,100,107,118,127,126,157,149,134,131,131,136,142,150,152,163,133,125,127,134,128,149,164,210,234,269,336,462,487,565,599,631,610,667,638,668,684,669,672,704,667,651,756,811,839,877,909,849,804,744,726,693,676,625,689,784,866,871,865,853,747,610,591,608,626,626,616,672,748,721,698,713,639,536,620,690,696,760,746,641,638,615,570,637,713,720,744,751,690,611,565,566,500,594,625,625,633,709,672,740,768,759,752,740,613,544,534,442,394,416,416,362,357,355,333,290,262,256,216,183,169,168,157,125,118,121,112,94,117,111,100,98,120,125,129,131,168,157,139,137,155,128,119,125,127,97,91,92,84,79,90,83,86,88,96,,,,,,,,,,,,,,,,,,,,,,,,,,,,,,,,,,,,,,,,,,,,,,,,,,,,,,,,,,,,,,,,,,,,,,,,,,,,,,,,,,,,,,
waveOut,3,4,83,91,93,91,87,78,82,87,97,109,138,138,154,153,177,158,156,141,161,168,188,192,200,197,190,234,275,298,378,399,412,521,584,614,658,714,683,717,701,763,721,676,609,594,476,481,528,526,518,531,551,516,550,549,538,528,567,569,647,688,682,650,664,661,641,659,705,687,662,635,629,676,696,748,789,815,767,729,676,650,587,663,674,682,712,756,672,677,632,576,488,472,433,372,350,352,323,281,276,229,198,151,131,113,109,130,118,105,101,116,106,121,120,118,107,104,85,89,98,95,89,88,87,92,90,79,77,74,60,55,56,68,,,,,,,,,,,,,,,,,,,,,,,,,,,,,,,,,,,,,,,,,,,,,,,,,,,,,,,,,,,,,,,,,,,,,,,,,,,,,,,,,,,,,,,,,,,,,,,,,,,,,,,,,,,,,,
waveOut,3,5,73,72,70,64,64,63,82,95,99,100,108,123,117,115,118,112,87,88,101,97,102,109,105,93,94,95,99,134,140,164,194,251,287,304,358,369,358,349,386,339,367,358,363,376,475,508,529,584,563,507,551,573,570,624,622,609,626,606,553,610,607,668,693,712,661,706,681,629,712,816,800,824,879,835,768,795,730,749,788,853,794,790,855,859,802,825,857,757,777,834,824,882,914,868,776,759,742,709,788,921,944,1002,995,936,855,888,826,864,852,791,714,655,571,507,585,553,457,405,385,234,190,161,180,179,169,157,164,149,144,167,168,228,324,334,337,337,314,216,200,177,201,165,151,146,151,108,109,,,,,,,,,,,,,,,,,,,,,,,,,,,,,,,,,,,,,,,,,,,,,,,,,,,,,,,,,,,,,,,,,,,,,,,,,,,,,,,,,,,,,,,,,,,,,,,
waveOut,3,6,704,753,763,746,708,738,744,707,753,785,698,704,741,714,624,616,760,792,820,849,856,689,640,663,698,690,708,759,739,765,779,743,718,696,622,614,717,721,792,803,882,859,810,739,742,710,676,754,748,715,720,700,636,621,645,554,516,566,595,564,535,590,524,516,585,640,596,612,622,661,677,686,689,705,615,587,671,661,602,618,609,498,480,481,408,334,402,390,385,383,368,266,200,148,127,126,108,102,101,107,114,111,104,103,124,114,113,109,123,102,102,112,117,99,88,80,67,58,60,,,,,,,,,,,,,,,,,,,,,,,,,,,,,,,,,,,,,,,,,,,,,,,,,,,,,,,,,,,,,,,,,,,,,,,,,,,,,,,,,,,,,,,,,,,,,,,,,,,,,,,,,,,,,,,,,,,,,,,,,,,
waveOut,3,7,77,82,80,91,99,94,99,109,131,126,134,137,166,160,168,175,172,163,163,166,159,166,138,127,169,189,197,218,246,272,333,346,370,395,418,417,459,511,537,567,583,598,580,594,586,598,614,621,626,628,653,725,763,777,758,804,727,680,681,804,720,702,729,748,643,772,839,858,849,878,824,823,838,914,915,911,919,896,828,771,757,678,732,692,802,804,852,822,839,749,710,743,755,732,764,811,837,923,930,970,992,913,771,796,715,640,625,676,732,748,791,789,750,673,636,573,601,601,610,653,662,609,607,561,534,494,555,522,565,526,575,540,632,640,682,699,688,616,605,644,636,653,644,637,570,510,504,534,486,469,536,511,503,518,526,431,430,439,406,379,385,373,320,301,282,261,276,238,225,207,188,169,150,145,151,150,119,122,128,122,118,120,122,117,117,116,101,98,99,88,84,88,83,77,82,,,,,,,,,,,,,,,,,,,,,,,,,,,,,,,,,,,,,,,,,,,,,,,
waveOut,3,8,122,107,111,107,83,82,93,90,106,125,135,154,160,173,176,169,148,148,130,107,111,122,139,144,151,160,165,155,145,148,139,126,123,124,151,168,179,185,203,222,210,213,223,327,349,363,360,407,346,307,312,347,348,443,469,481,504,520,447,414,422,532,661,701,789,833,835,760,777,782,864,851,932,924,995,935,951,865,864,731,682,665,637,648,706,736,673,712,685,613,647,656,639,669,695,611,682,735,715,740,760,730,752,779,766,762,764,692,640,612,602,589,554,586,546,579,536,554,536,618,695,710,700,708,669,618,594,598,629,589,502,463,408,237,210,291,297,305,302,307,182,141,121,116,95,90,86,70,59,59,59,56,50,55,66,71,74,75,73,66,,,,,,,,,,,,,,,,,,,,,,,,,,,,,,,,,,,,,,,,,,,,,,,,,,,,,,,,,,,,,,,,,,,,,,,,,,,,,,,,,,
waveOut,3,9,98,112,99,85,97,99,86,93,102,89,88,93,89,75,85,88,83,88,93,86,87,88,82,91,107,107,129,167,170,170,189,207,182,177,172,156,175,232,249,270,286,360,454,489,503,511,510,497,500,523,548,567,525,561,633,646,692,704,693,634,663,623,648,643,630,614,595,600,648,663,703,747,743,777,859,829,775,771,698,629,638,696,666,692,794,801,830,919,946,879,930,899,852,834,865,846,846,826,804,821,833,865,894,891,813,809,823,834,860,908,839,797,766,783,856,882,893,894,829,658,602,498,393,352,315,273,213,186,171,164,142,151,165,149,144,134,120,102,109,131,131,131,122,117,93,92,81,82,,,,,,,,,,,,,,,,,,,,,,,,,,,,,,,,,,,,,,,,,,,,,,,,,,,,,,,,,,,,,,,,,,,,,,,,,,,,,,,,,,,,,,,,,,,,,,
waveIn,3,0,95,102,113,94,89,91,108,172,178,179,187,178,119,133,132,129,135,147,130,132,124,126,104,99,92,107,96,94,95,104,91,91,96,101,94,96,98,109,111,114,129,133,119,130,140,140,138,144,143,133,160,167,177,179,176,167,172,162,155,176,159,162,170,174,162,156,152,163,162,184,203,207,190,219,202,200,186,188,144,147,180,185,192,194,197,155,147,135,134,125,153,163,174,200,203,188,178,177,143,165,188,221,229,247,235,220,201,185,198,237,233,226,223,205,146,128,113,111,93,120,124,125,121,120,82,74,,,,,,,,,,,,,,,,,,,,,,,,,,,,,,,,,,,,,,,,,,,,,,,,,,,,,,,,,,,,,,,,,,,,,,,,,,,,,,,,,,,,,,,,,,,,,,,,,,,,,,,,,,,,,,,,,,,,
waveIn,3,1,56,54,56,55,55,49,51,49,48,56,57,59,64,69,68,83,98,95,93,109,101,102,104,106,92,110,97,101,98,94,85,84,79,82,87,79,103,119,121,128,127,106,94,99,106,112,116,118,125,119,119,117,126,127,131,139,149,142,147,139,146,148,153,152,161,150,146,152,149,137,140,142,135,140,146,143,137,133,118,117,112,107,137,148,153,151,163,142,130,125,143,138,147,158,188,182,201,197,191,160,156,123,105,100,117,117,119,126,126,112,111,106,98,101,89,89,86,81,76,79,59,80,96,100,110,125,118,137,139,141,145,158,137,138,131,127,111,105,129,131,120,118,119,81,72,82,78,76,97,94,86,87,97,80,92,90,94,,,,,,,,,,,,,,,,,,,,,,,,,,,,,,,,,,,,,,,,,,,,,,,,,,,,,,,,,,,,,,,,,,,,,,,,,,,,,,,,,,,,,
waveIn,3,2,46,47,46,41,45,48,47,52,57,59,58,57,57,53,51,55,59,57,61,63,58,57,60,58,54,58,64,82,105,119,120,123,111,101,88,95,91,92,90,92,84,82,87,79,95,106,133,133,132,123,117,92,104,107,104,110,102,95,96,107,100,101,97,91,90,87,90,90,97,85,84,88,86,83,88,91,90,90,86,83,88,87,89,95,106,103,107,107,102,96,95,85,82,86,82,97,97,96,103,98,84,91,102,99,97,99,93,78,72,83,83,86,92,93,83,86,88,98,99,104,110,107,95,92,100,95,96,92,86,67,52,39,38,37,35,39,40,41,42,39,39,41,47,55,84,95,96,99,104,103,101,114,128,129,140,146,138,131,132,114,100,99,86,83,73,77,84,81,92,87,89,83,86,73,77,76,82,81,74,73,74,74,81,80,83,74,70,,,,,,,,,,,,,,,,,,,,,,,,,,,,,,,,,,,,,,,,,,,,,,,,,,,,,,,
waveIn,3,3,39,47,50,53,52,52,45,45,52,56,58,59,63,57,57,64,69,64,63,60,51,45,50,54,54,57,58,58,52,50,53,67,69,71,75,75,68,69,76,75,71,69,63,61,63,74,83,82,76,92,91,89,99,106,99,95,93,96,98,90,93,92,96,101,104,100,99,94,79,75,87,92,83,84,84,76,70,69,71,68,68,61,61,57,62,58,66,68,68,74,78,72,70,70,65,68,69,69,76,76,77,75,81,76,75,68,71,69,67,69,68,69,66,74,75,79,76,78,68,64,56,59,54,68,83,84,86,85,85,76,90,92,96,87,85,70,63,57,65,66,91,97,136,146,151,140,139,116,124,151,149,155,168,166,142,151,149,133,118,122,117,118,113,113,103,107,99,96,88,82,72,82,86,85,93,86,78,70,,,,,,,,,,,,,,,,,,,,,,,,,,,,,,,,,,,,,,,,,,,,,,,,,,,,,,,,,,,,,,,,
waveIn,3,5,99,99,93,115,123,102,103,103,78,78,85,83,99,100,94,105,105,94,105,103,91,100,95,83,92,99,97,100,96,83,77,93,88,91,97,98,74,84,83,81,69,71,60,61,61,63,67,68,76,74,77,75,79,73,69,75,97,96,109,123,126,122,125,125,118,122,124,121,127,132,133,123,126,119,121,114,125,136,128,116,138,135,129,130,134,105,92,82,85,87,101,102,103,104,95,84,79,77,64,66,63,74,77,106,111,112,113,163,162,159,161,157,133,142,151,166,193,194,193,195,222,223,212,197,190,142,111,101,95,103,105,95,92,101,96,99,97,93,91,80,76,69,77,85,88,,,,,,,,,,,,,,,,,,,,,,,,,,,,,,,,,,,,,,,,,,,,,,,,,,,,,,,,,,,,,,,,,,,,,,,,,,,,,,,,,,,,,,,,,,,,,,,,,
waveIn,3,6,66,72,68,73,76,92,86,82,76,76,59,58,71,77,83,86,85,76,76,75,88,88,90,90,84,67,68,71,81,87,104,110,111,110,110,100,94,98,91,88,86,88,98,101,104,109,116,112,116,112,109,106,99,95,100,102,111,112,109,111,111,103,107,112,105,96,88,84,80,81,99,100,99,92,85,65,62,55,58,62,63,66,71,72,71,80,85,87,102,105,105,111,116,121,151,164,162,162,174,149,141,142,141,110,120,120,112,108,114,122,119,121,122,117,101,99,99,89,112,110,108,111,119,94,93,86,86,91,93,85,81,83,,,,,,,,,,,,,,,,,,,,,,,,,,,,,,,,,,,,,,,,,,,,,,,,,,,,,,,,,,,,,,,,,,,,,,,,,,,,,,,,,,,,,,,,,,,,,,,,,,,,,,,,,,,,,,
waveIn,3,7,92,88,76,74,70,78,81,81,87,94,93,97,106,108,102,97,93,89,84,88,130,130,127,130,145,114,120,120,115,90,82,85,90,97,104,118,120,120,118,113,106,103,100,118,124,119,124,126,124,129,141,135,132,129,130,145,140,155,162,161,144,157,160,162,154,153,161,155,135,138,138,118,102,104,126,118,115,116,118,92,96,96,94,94,110,120,120,132,140,129,113,109,107,115,131,135,134,144,142,131,194,211,210,211,217,177,199,202,196,242,253,241,238,252,202,186,169,165,143,173,166,166,162,157,116,104,90,87,87,81,86,105,,,,,,,,,,,,,,,,,,,,,,,,,,,,,,,,,,,,,,,,,,,,,,,,,,,,,,,,,,,,,,,,,,,,,,,,,,,,,,,,,,,,,,,,,,,,,,,,,,,,,,,,,,,,,,
waveIn,3,8,148,152,140,146,170,131,141,151,149,140,135,135,127,124,103,131,123,121,120,128,106,120,120,134,126,140,177,192,193,201,200,173,169,168,166,168,153,142,140,143,134,136,143,137,130,125,118,121,114,107,107,111,99,104,106,111,128,124,127,128,128,109,122,133,130,129,132,115,116,125,118,112,135,128,134,141,151,137,129,118,127,118,124,122,119,102,99,77,76,97,95,95,100,101,79,76,68,59,57,53,54,53,53,53,53,69,76,80,78,86,80,102,101,107,105,136,136,139,136,136,112,114,138,151,164,177,179,161,153,144,144,121,118,116,119,90,109,108,105,102,101,85,80,83,88,103,101,100,105,,,,,,,,,,,,,,,,,,,,,,,,,,,,,,,,,,,,,,,,,,,,,,,,,,,,,,,,,,,,,,,,,,,,,,,,,,,,,,,,,,,,,,,,,,,,,
waveIn,3,9,87,91,87,94,90,95,94,97,95,101,92,82,71,61,63,67,66,69,112,114,113,119,117,82,75,79,79,79,85,86,101,98,97,88,82,54,48,47,54,49,63,69,72,74,77,79,78,82,86,86,77,79,87,77,85,91,94,89,99,94,92,90,83,76,81,79,76,76,115,119,183,251,558,630,660,660,682,571,506,480,488,443,310,291,410,414,402,400,392,238,169,142,113,95,87,78,77,82,84,78,84,83,80,88,93,88,96,101,96,123,139,137,136,168,159,152,157,160,133,171,172,168,170,171,113,102,104,103,99,116,119,117,120,133,121,,,,,,,,,,,,,,,,,,,,,,,,,,,,,,,,,,,,,,,,,,,,,,,,,,,,,,,,,,,,,,,,,,,,,,,,,,,,,,,,,,,,,,,,,,,,,,,,,,,,,,,,,,,
doubleTap,3,0,91,81,79,96,101,93,86,86,65,60,64,75,77,79,81,97,107,109,109,120,106,110,117,129,240,468,531,549,567,531,354,247,228,273,367,546,617,639,655,617,496,422,390,311,297,240,216,188,165,142,163,147,160,151,153,125,118,94,92,84,78,87,105,107,112,116,115,97,92,96,93,96,95,102,94,94,84,82,77,88,86,83,92,99,89,84,93,95,90,93,98,91,75,93,93,90,92,96,82,78,76,,,,,,,,,,,,,,,,,,,,,,,,,,,,,,,,,,,,,,,,,,,,,,,,,,,,,,,,,,,,,,,,,,,,,,,,,,,,,,,,,,,,,,,,,,,,,,,,,,,,,,,,,,,,,,,,,,,,,,,,,,,,,,,,,,,,,,,,,,,,,
doubleTap,3,1,74,83,99,95,90,102,101,89,87,86,111,111,112,109,112,83,79,76,99,97,91,89,359,572,718,768,790,721,572,387,281,300,428,622,662,711,695,638,474,426,344,347,312,268,234,235,182,154,141,139,110,98,89,85,68,72,79,95,100,100,92,80,63,69,70,90,96,100,105,111,100,99,100,94,106,104,101,99,122,109,106,105,107,78,77,78,97,99,92,91,105,97,93,96,94,83,74,,,,,,,,,,,,,,,,,,,,,,,,,,,,,,,,,,,,,,,,,,,,,,,,,,,,,,,,,,,,,,,,,,,,,,,,,,,,,,,,,,,,,,,,,,,,,,,,,,,,,,,,,,,,,,,,,,,,,,,,,,,,,,,,,,,,,,,,,,,,,,,,,
doubleTap,3,2,96,92,95,97,95,96,103,103,93,90,84,77,80,81,88,78,75,68,90,78,77,76,83,72,73,84,97,110,161,365,467,674,757,780,718,658,462,325,247,312,544,710,838,884,886,782,633,441,348,264,206,184,189,164,154,145,119,81,67,82,87,86,87,90,91,87,88,88,89,80,79,84,87,90,87,87,80,79,89,82,84,88,90,81,91,88,84,112,108,98,100,100,73,80,86,85,97,96,90,85,96,92,99,104,264,319,344,350,360,336,429,431,448,450,407,255,297,455,565,684,704,693,618,546,394,374,353,294,231,208,166,128,119,95,89,102,94,82,87,97,110,109,112,109,125,111,120,118,129,114,114,106,109,95,82,88,88,80,85,87,84,92,119,123,126,119,110,88,96,95,98,108,114,102,100,,,,,,,,,,,,,,,,,,,,,,,,,,,,,,,,,,,,,,,,,,,,,,,,,,,,,,,,,,,,,,,,,,,
doubleTap,3,3,87,79,83,90,91,90,91,86,99,88,91,100,103,102,108,109,115,112,102,103,125,112,116,111,133,110,116,121,152,175,186,185,188,282,365,437,586,623,599,569,528,368,305,318,471,581,667,713,698,601,487,357,256,256,203,197,201,187,173,170,150,126,113,92,104,122,119,118,138,139,121,121,139,115,99,105,98,114,124,128,128,146,111,103,107,106,79,81,105,104,102,108,113,100,93,,,,,,,,,,,,,,,,,,,,,,,,,,,,,,,,,,,,,,,,,,,,,,,,,,,,,,,,,,,,,,,,,,,,,,,,,,,,,,,,,,,,,,,,,,,,,,,,,,,,,,,,,,,,,,,,,,,,,,,,,,,,,,,,,,,,,,,,,,,,,,,,,,,
doubleTap,3,4,75,75,75,70,69,79,85,90,103,226,466,583,712,740,730,617,532,345,289,375,671,820,930,946,941,783,629,463,474,399,337,296,267,167,134,108,90,90,84,94,94,113,120,122,117,129,108,98,102,100,83,79,90,83,88,90,97,85,86,86,83,76,84,81,117,,,,,,,,,,,,,,,,,,,,,,,,,,,,,,,,,,,,,,,,,,,,,,,,,,,,,,,,,,,,,,,,,,,,,,,,,,,,,,,,,,,,,,,,,,,,,,,,,,,,,,,,,,,,,,,,,,,,,,,,,,,,,,,,,,,,,,,,,,,,,,,,,,,,,,,,,,,,,,,,,,,,,,,,,,,,,,,,,
doubleTap,3,5,92,103,96,93,88,87,80,79,86,287,498,707,808,832,821,759,598,476,452,561,664,817,980,1035,980,891,743,553,476,432,406,402,319,242,214,202,172,158,137,133,139,134,131,125,126,141,137,124,120,115,84,79,79,80,85,80,76,99,99,92,98,104,93,98,102,96,110,104,112,123,128,118,116,106,87,,,,,,,,,,,,,,,,,,,,,,,,,,,,,,,,,,,,,,,,,,,,,,,,,,,,,,,,,,,,,,,,,,,,,,,,,,,,,,,,,,,,,,,,,,,,,,,,,,,,,,,,,,,,,,,,,,,,,,,,,,,,,,,,,,,,,,,,,,,,,,,,,,,,,,,,,,,,,,,,,,,,,,,
doubleTap,3,6,89,95,95,87,88,84,87,84,91,94,105,100,101,104,104,90,92,91,409,559,646,827,922,866,803,750,564,487,663,739,837,983,1033,932,886,807,648,514,469,409,373,316,270,233,221,192,155,149,150,128,117,97,104,95,96,97,95,90,82,80,84,84,82,92,98,109,123,125,119,113,102,195,324,588,628,650,639,600,386,329,296,414,441,516,662,715,675,657,589,434,372,317,296,280,247,184,163,147,137,118,111,120,117,110,125,125,117,107,99,94,97,109,125,150,150,150,138,129,111,117,132,137,144,148,139,136,139,163,208,214,207,228,310,386,476,537,551,510,454,368,283,240,235,258,382,444,636,649,643,576,525,280,251,217,201,199,180,162,137,137,140,120,110,109,119,102,99,96,105,92,107,109,129,122,124,111,108,95,98,100,106,105,105,111,104,97,107,115,123,128,132,133,117,112,112,126,123,137,136,132,118,115,113,124,131,132,253,415,604,684,755,742,668,513,449,338,322,411,587,801,826,836,800,676,369,300,265,255,258,240,230,196,190,171,146,139,135,111,107,119,99,
doubleTap,3,7,93,90,92,91,90,84,99,97,105,106,113,102,107,111,114,106,133,135,126,155,323,377,521,598,597,538,505,372,257,420,495,582,740,752,694,642,562,317,272,201,166,156,139,125,117,131,112,129,134,135,117,118,98,89,90,87,126,132,132,136,144,108,106,102,101,89,94,91,97,94,97,106,117,113,115,115,119,106,107,113,,,,,,,,,,,,,,,,,,,,,,,,,,,,,,,,,,,,,,,,,,,,,,,,,,,,,,,,,,,,,,,,,,,,,,,,,,,,,,,,,,,,,,,,,,,,,,,,,,,,,,,,,,,,,,,,,,,,,,,,,,,,,,,,,,,,,,,,,,,,,,,,,,,,,,,,,,,,,,,,,,
doubleTap,3,8,65,79,82,84,95,97,79,80,89,90,99,115,141,136,130,124,116,77,270,464,570,666,755,741,668,604,506,376,431,504,632,704,725,678,608,454,338,278,279,253,229,196,186,106,100,105,100,101,111,102,100,99,95,106,112,137,140,141,120,112,98,95,97,95,99,86,92,94,96,96,97,105,124,149,155,158,153,157,152,150,188,229,237,254,257,327,,,,,,,,,,,,,,,,,,,,,,,,,,,,,,,,,,,,,,,,,,,,,,,,,,,,,,,,,,,,,,,,,,,,,,,,,,,,,,,,,,,,,,,,,,,,,,,,,,,,,,,,,,,,,,,,,,,,,,,,,,,,,,,,,,,,,,,,,,,,,,,,,,,,,,,,,,,,
doubleTap,3,9,82,82,84,82,89,84,77,87,107,104,104,116,112,100,104,100,105,113,113,123,135,130,129,127,118,220,386,480,563,625,602,534,474,377,273,328,417,546,661,690,670,614,486,309,251,229,193,194,197,159,143,138,113,101,98,93,77,71,68,68,84,85,96,101,96,84,93,115,111,125,138,141,122,118,104,102,92,82,84,99,84,78,81,92,88,89,93,97,,,,,,,,,,,,,,,,,,,,,,,,,,,,,,,,,,,,,,,,,,,,,,,,,,,,,,,,,,,,,,,,,,,,,,,,,,,,,,,,,,,,,,,,,,,,,,,,,,,,,,,,,,,,,,,,,,,,,,,,,,,,,,,,,,,,,,,,,,,,,,,,,,,,,,,,,,
fist,4,0,52,51,59,61,62,58,58,50,46,53,54,60,66,64,57,54,54,47,52,51,57,54,57,58,59,58,57,52,46,44,48,51,56,61,66,61,54,53,47,41,39,47,49,50,51,69,69,74,79,91,93,90,83,90,116,109,209,268,428,580,634,650,735,719,699,782,845,915,1018,1034,1101,1150,1155,1173,1249,1199,1228,1286,1240,1205,1276,1252,1207,1146,1123,1158,1166,1049,1104,1132,987,854,840,833,686,588,556,535,368,324,349,376,397,488,484,462,451,446,307,310,312,319,294,310,320,304,296,375,369,348,330,335,243,239,227,229,169,162,192,250,245,253,263,240,202,,,,,,,,,,,,,,,,,,,,,,,,,,,,,,,,,,,,,,,,,,,,,,,,,,,,,,,,,,,,,,,,,,,,,,,,,,,,,,,,,,,,,,,,,,,,,,,,,,,,,,,,,,,
fist,4,1,215,208,188,203,215,218,201,196,190,203,302,290,289,280,276,167,184,179,323,327,334,327,393,336,381,553,661,684,859,947,907,939,986,972,927,937,1024,1248,1223,1240,1273,1203,975,945,979,1057,1105,1127,1144,1202,1203,1111,1048,1102,1130,1027,1074,1113,1068,862,816,711,583,367,338,342,333,324,323,361,298,321,344,371,357,380,441,491,488,516,631,614,576,595,589,452,397,382,344,296,270,,,,,,,,,,,,,,,,,,,,,,,,,,,,,,,,,,,,,,,,,,,,,,,,,,,,,,,,,,,,,,,,,,,,,,,,,,,,,,,,,,,,,,,,,,,,,,,,,,,,,,,,,,,,,,,,,,,,,,,,,,,,,,,,,,,,,,,,,,,,,,,,,,,,,,,
fist,4,2,57,57,55,58,63,57,58,63,59,62,64,68,68,68,63,78,76,78,81,87,77,75,72,78,67,61,58,62,52,58,56,59,59,78,81,90,88,88,74,74,77,78,75,72,65,43,48,47,49,53,57,57,61,63,65,68,65,70,68,64,66,65,63,65,62,60,57,53,54,61,56,66,72,68,67,96,115,121,152,151,142,129,126,139,169,333,506,606,656,810,805,810,856,919,844,920,970,962,1120,1131,1152,1228,1442,1415,1463,1478,1451,1334,1210,1170,1106,1230,1189,1204,1271,1284,1105,1055,1120,1034,1027,971,919,854,815,731,683,618,508,578,596,617,706,710,666,648,618,499,426,292,223,191,166,167,165,184,150,143,138,123,74,71,69,67,68,106,109,112,116,,,,,,,,,,,,,,,,,,,,,,,,,,,,,,,,,,,,,,,,,,,,,,,,,,,,,,,,,,,,,,,,,,,,,,,,,,,,,,,,,,,
fist,4,3,51,53,48,43,51,55,65,65,63,57,52,38,39,41,49,52,52,52,51,45,47,55,57,61,64,71,77,81,90,94,99,114,134,144,160,164,205,263,342,366,478,528,636,836,940,1053,1170,1193,1179,1148,1089,1026,987,932,1031,1096,1093,1167,1216,1190,1154,1139,1088,1043,1019,1064,1059,1142,1195,1129,1092,1159,1145,1071,1135,1234,1286,1207,1252,1265,1173,1053,1155,1182,1232,1156,1134,1001,896,682,661,726,690,581,577,537,398,396,388,380,375,290,224,197,166,151,137,132,110,91,77,74,82,84,84,78,70,56,49,53,56,70,78,84,87,,,,,,,,,,,,,,,,,,,,,,,,,,,,,,,,,,,,,,,,,,,,,,,,,,,,,,,,,,,,,,,,,,,,,,,,,,,,,,,,,,,,,,,,,,,,,,,,,,,,,,,,,,,,,,,,,,,,,
fist,4,4,57,51,45,45,45,50,60,69,88,142,145,158,161,169,137,136,118,111,91,90,97,102,108,137,140,133,132,209,459,563,595,691,800,741,741,90,97,803,895,877,864,873,871,985,1102,1063,1093,1137,1037,922,1028,1141,1231,1213,1232,1208,1162,1007,1086,1116,1147,1144,1187,1133,1210,1190,1115,1086,1220,1157,1079,1119,1140,1113,1075,1148,1193,1238,1095,1139,1142,1126,984,1030,1090,1054,979,1016,978,780,672,596,513,418,386,378,387,387,385,361,440,445,377,416,463,383,332,328,258,129,117,112,131,118,143,155,164,159,147,125,117,100,86,137,137,142,,,,,,,,,,,,,,,,,,,,,,,,,,,,,,,,,,,,,,,,,,,,,,,,,,,,,,,,,,,,,,,,,,,,,,,,,,,,,,,,,,,,,,,,,,,,,,,,,,,,,,,,,,,,,,,,,,,,
fist,4,5,53,53,62,61,61,64,71,64,62,65,82,83,92,101,103,92,88,76,63,75,100,122,143,153,145,139,300,502,575,656,724,763,709,732,698,801,804,832,964,1020,949,996,1131,1072,1100,1170,1133,1075,1072,1143,1089,1266,1187,1249,1132,1158,1013,1066,1057,1178,1349,1345,1364,1354,1285,1088,1100,1106,996,1071,1189,1138,1059,1082,961,716,630,552,415,270,239,228,283,323,447,464,495,524,537,486,582,573,532,520,484,350,316,349,314,298,310,321,257,258,252,199,133,119,,,,,,,,,,,,,,,,,,,,,,,,,,,,,,,,,,,,,,,,,,,,,,,,,,,,,,,,,,,,,,,,,,,,,,,,,,,,,,,,,,,,,,,,,,,,,,,,,,,,,,,,,,,,,,,,,,,,,,,,,,,,,,,,,,,,,,
fist,4,6,71,75,85,93,97,99,104,94,88,88,86,106,111,113,128,131,111,113,143,403,437,482,579,657,632,709,791,862,922,1057,1088,1028,966,1060,1039,1014,1208,1340,1249,1216,1250,1180,1124,1206,1174,1178,1185,1256,1249,1271,1227,1167,1086,1046,1001,1050,1026,1092,1041,1038,1002,1168,1006,948,885,805,481,450,467,556,562,536,485,462,345,311,261,265,223,171,162,149,138,147,147,144,147,151,123,131,125,117,108,105,96,97,94,91,91,87,87,94,96,93,,,,,,,,,,,,,,,,,,,,,,,,,,,,,,,,,,,,,,,,,,,,,,,,,,,,,,,,,,,,,,,,,,,,,,,,,,,,,,,,,,,,,,,,,,,,,,,,,,,,,,,,,,,,,,,,,,,,,,,,,,,,,,,,,,,,,,,,,,
fist,4,7,84,85,79,69,76,55,59,65,67,60,62,54,60,64,65,71,75,69,73,85,88,86,117,123,115,135,167,307,309,309,404,642,844,890,937,1017,992,867,1015,1146,1170,1256,1379,1313,1323,1326,1323,1293,1375,1357,1325,1426,1407,1303,1250,1353,1182,1123,1125,1185,1124,1061,1019,1048,963,844,800,737,610,462,334,294,293,363,391,401,393,450,404,351,331,328,232,190,187,173,147,135,126,118,103,90,85,91,85,78,80,79,,,,,,,,,,,,,,,,,,,,,,,,,,,,,,,,,,,,,,,,,,,,,,,,,,,,,,,,,,,,,,,,,,,,,,,,,,,,,,,,,,,,,,,,,,,,,,,,,,,,,,,,,,,,,,,,,,,,,,,,,,,,,,,,,,,,,,,,,,,,,,,,
fist,4,8,54,44,45,52,52,51,55,56,87,94,98,99,98,73,69,69,67,65,62,56,49,46,46,44,42,38,36,35,46,55,60,66,68,71,123,143,146,151,157,128,233,444,492,582,707,742,830,844,855,895,929,818,846,914,899,954,1024,1064,1133,1128,1233,1347,1471,1402,1444,1421,1346,1251,1242,1186,1081,1041,1114,1086,1186,1205,1139,946,920,689,531,487,466,437,467,576,618,635,649,660,572,534,516,476,399,337,309,247,231,239,240,224,229,232,216,189,190,174,179,171,,,,,,,,,,,,,,,,,,,,,,,,,,,,,,,,,,,,,,,,,,,,,,,,,,,,,,,,,,,,,,,,,,,,,,,,,,,,,,,,,,,,,,,,,,,,,,,,,,,,,,,,,,,,,,,,,,,,,,,,,,,,,,,,,,,,
fist,4,9,41,42,45,48,47,44,42,42,41,45,45,92,122,134,137,137,115,84,67,60,59,64,86,87,186,188,198,195,241,437,499,605,721,826,824,953,1054,1097,1032,1126,1086,1025,978,1007,931,999,1092,1138,1151,1139,1085,951,996,1066,1151,1191,1213,1134,1086,1047,1044,1178,1125,1103,1156,1138,995,1022,1158,1081,1027,970,929,686,497,336,270,296,278,277,340,333,302,307,291,207,194,168,102,104,92,91,95,121,138,134,136,130,105,67,65,54,59,57,55,53,50,47,,,,,,,,,,,,,,,,,,,,,,,,,,,,,,,,,,,,,,,,,,,,,,,,,,,,,,,,,,,,,,,,,,,,,,,,,,,,,,,,,,,,,,,,,,,,,,,,,,,,,,,,,,,,,,,,,,,,,,,,,,,,,,,,,,,,,,
fingersSpread,4,0,40,40,43,45,40,40,43,40,34,33,35,35,41,50,107,142,168,378,439,518,522,593,517,493,454,477,462,496,486,474,557,545,632,687,779,735,736,750,788,806,897,934,957,1001,1043,1014,1042,968,950,831,794,786,806,862,903,987,958,958,856,863,815,936,950,904,867,782,572,582,601,539,540,791,817,801,797,787,564,399,446,439,429,333,281,155,133,115,106,90,77,63,67,69,71,66,,,,,,,,,,,,,,,,,,,,,,,,,,,,,,,,,,,,,,,,,,,,,,,,,,,,,,,,,,,,,,,,,,,,,,,,,,,,,,,,,,,,,,,,,,,,,,,,,,,,,,,,,,,,,,,,,,,,,,,,,,,,,,,,,,,,,,,,,,,,,,,,,,,,
fingersSpread,4,1,151,185,293,334,351,394,407,388,376,369,394,434,410,440,480,480,485,665,760,776,816,825,737,684,786,798,852,889,943,1031,1046,1158,1176,1150,1082,1113,1055,1088,1174,1222,1199,1178,1148,1103,985,1076,1024,990,1045,1094,976,1108,1094,988,953,1023,930,987,1003,1017,1043,1059,1016,976,970,902,829,829,870,935,888,908,869,843,653,585,431,488,380,419,623,669,608,608,586,399,349,326,322,314,234,166,155,142,107,87,76,74,61,60,53,59,,,,,,,,,,,,,,,,,,,,,,,,,,,,,,,,,,,,,,,,,,,,,,,,,,,,,,,,,,,,,,,,,,,,,,,,,,,,,,,,,,,,,,,,,,,,,,,,,,,,,,,,,,,,,,,,,,,,,,,,,,,,,,,,,,,,,,,,,,,,
fingersSpread,4,2,41,39,38,37,37,44,43,45,53,68,64,64,62,57,35,40,38,42,39,39,35,37,34,48,54,53,51,53,44,45,72,88,253,331,339,397,415,427,396,416,418,446,435,499,542,546,628,668,671,774,858,896,933,954,887,887,861,941,907,1024,982,998,919,1032,995,1057,1082,1048,999,984,992,952,961,948,924,897,937,946,953,990,988,922,954,918,836,795,814,727,813,793,821,869,977,867,937,902,808,662,718,587,565,542,526,414,416,449,459,429,432,485,383,327,329,329,207,180,166,158,148,136,104,117,121,116,121,113,93,,,,,,,,,,,,,,,,,,,,,,,,,,,,,,,,,,,,,,,,,,,,,,,,,,,,,,,,,,,,,,,,,,,,,,,,,,,,,,,,,,,,,,,,,,,,,,,,,,,,,,,,,,,,,,,,,,,
fingersSpread,4,3,59,62,58,57,51,53,51,51,48,45,44,43,44,46,58,59,58,60,55,54,54,55,53,57,54,69,72,78,78,157,184,229,233,233,240,242,373,431,485,531,671,673,681,739,727,694,684,806,811,845,864,933,907,947,1110,1092,1074,1042,1042,1033,1143,1174,1205,1290,1291,1336,1338,1370,1320,1234,1133,1121,1077,1128,1146,1106,1102,1075,994,957,918,860,876,858,816,785,727,696,648,619,605,596,534,535,524,540,549,540,401,322,275,241,148,118,119,108,114,101,104,96,94,82,77,54,52,61,59,66,89,89,86,100,,,,,,,,,,,,,,,,,,,,,,,,,,,,,,,,,,,,,,,,,,,,,,,,,,,,,,,,,,,,,,,,,,,,,,,,,,,,,,,,,,,,,,,,,,,,,,,,,,,,,,,,,,,,,,,,,,,,,,,,
fingersSpread,4,4,73,76,72,68,64,63,64,69,66,64,56,52,47,46,47,40,44,45,45,43,44,48,82,98,153,199,218,272,327,358,410,408,466,534,536,539,566,530,542,580,623,722,809,753,854,846,842,868,919,889,884,974,1018,1015,962,1062,995,960,988,1064,1035,1010,970,991,995,969,1044,1150,1228,1198,1258,1206,1097,949,929,895,923,867,881,873,787,672,688,698,623,578,548,510,418,417,427,460,458,408,392,442,428,408,413,415,245,170,156,199,185,177,172,184,116,107,,,,,,,,,,,,,,,,,,,,,,,,,,,,,,,,,,,,,,,,,,,,,,,,,,,,,,,,,,,,,,,,,,,,,,,,,,,,,,,,,,,,,,,,,,,,,,,,,,,,,,,,,,,,,,,,,,,,,,,,,,,,,,,,,,,,
fingersSpread,4,5,33,34,40,41,43,46,44,39,41,42,39,39,40,41,52,59,61,61,57,47,38,34,36,36,35,37,41,38,37,36,35,38,66,76,84,90,118,165,199,206,224,311,325,361,429,525,509,521,514,504,466,577,641,703,713,713,855,943,930,1008,1110,1075,1056,1089,1082,1067,986,1030,1053,1168,1162,1173,1095,1054,969,976,986,1159,1170,1147,1181,1140,954,994,912,762,772,703,567,522,448,343,309,403,424,571,571,614,517,492,325,423,376,378,371,357,208,164,136,113,97,89,102,102,94,96,91,81,85,109,,,,,,,,,,,,,,,,,,,,,,,,,,,,,,,,,,,,,,,,,,,,,,,,,,,,,,,,,,,,,,,,,,,,,,,,,,,,,,,,,,,,,,,,,,,,,,,,,,,,,,,,,,,,,,,,,,,,,,,,,,
fingersSpread,4,6,41,42,37,43,43,50,49,55,51,52,46,52,57,56,58,62,60,51,51,54,61,61,66,65,65,60,63,105,133,140,165,245,359,417,445,558,581,681,718,749,782,843,801,779,900,925,917,906,1076,1000,1105,1086,1158,1141,1139,1131,1187,1150,1066,1110,977,972,964,950,932,978,969,996,1061,1073,1144,1090,1057,1034,1077,978,988,975,860,694,563,480,534,635,661,662,661,525,401,333,317,295,267,218,206,195,180,158,136,79,97,100,103,108,108,126,125,124,119,120,77,76,69,72,65,125,131,137,138,142,90,82,72,78,72,69,68,70,61,65,59,63,73,68,70,,,,,,,,,,,,,,,,,,,,,,,,,,,,,,,,,,,,,,,,,,,,,,,,,,,,,,,,,,,,,,,,,,,,,,,,,,,,,,,,,,,,,,,,,,,,,,,,,,,,,,,,,,,
fingersSpread,4,7,54,55,55,58,53,57,63,66,68,63,58,54,57,52,53,56,58,53,55,58,55,58,56,53,50,51,51,61,124,135,192,222,261,265,330,376,401,425,639,691,742,849,900,833,897,944,892,905,932,911,989,1021,1067,1095,1202,1195,1224,1192,1198,1179,1103,1165,1214,1238,1208,1334,1251,1195,1098,1041,888,877,819,789,675,519,365,464,474,487,521,532,404,361,408,359,368,356,339,229,221,157,140,128,121,105,88,82,86,78,85,86,86,86,90,83,,,,,,,,,,,,,,,,,,,,,,,,,,,,,,,,,,,,,,,,,,,,,,,,,,,,,,,,,,,,,,,,,,,,,,,,,,,,,,,,,,,,,,,,,,,,,,,,,,,,,,,,,,,,,,,,,,,,,,,,,,,,,,,,,,,,,,,,
fingersSpread,4,8,35,34,44,49,52,53,52,48,45,43,45,47,44,45,48,46,45,45,43,39,45,44,44,49,52,51,58,63,60,60,59,54,62,59,55,52,59,47,55,61,63,70,74,84,88,95,96,111,111,121,125,130,129,147,162,167,180,193,323,363,408,452,466,416,533,581,634,729,830,828,959,1080,1172,1166,1186,1137,1059,976,1058,1082,1095,1033,1086,1058,1077,1038,1198,1116,1103,1053,1103,960,1076,1010,964,834,803,646,650,662,701,693,680,671,625,598,559,458,343,296,203,187,182,154,110,91,89,83,85,74,87,88,101,97,95,79,82,68,67,72,70,87,87,87,81,79,58,55,,,,,,,,,,,,,,,,,,,,,,,,,,,,,,,,,,,,,,,,,,,,,,,,,,,,,,,,,,,,,,,,,,,,,,,,,,,,,,,,,,,,,,,,,,,,,,,,,,,,,,,,
fingersSpread,4,9,68,69,70,71,68,61,62,64,63,61,57,54,51,58,57,61,62,65,54,52,53,55,57,54,52,57,60,50,52,53,52,99,123,158,222,250,332,428,434,413,480,521,596,677,774,801,825,799,844,849,868,979,1044,1123,1193,1220,1166,1174,1065,1001,1016,1101,1084,1111,1105,1078,1018,1043,1024,1065,1176,1110,1160,1209,1166,1091,1134,1065,982,961,891,787,648,729,851,814,830,825,706,468,491,432,421,422,405,311,309,276,257,229,177,170,143,268,274,267,263,259,118,89,86,95,97,102,106,,,,,,,,,,,,,,,,,,,,,,,,,,,,,,,,,,,,,,,,,,,,,,,,,,,,,,,,,,,,,,,,,,,,,,,,,,,,,,,,,,,,,,,,,,,,,,,,,,,,,,,,,,,,,,,,,,,,,,,,,,,,,,,
waveOut,4,0,63,65,64,66,65,57,57,71,78,86,101,112,109,113,124,141,151,185,241,390,415,446,496,651,715,742,881,990,980,974,974,141,151,1098,1080,1100,1134,1164,1232,1183,1242,1322,1338,1212,1304,1220,1127,1040,1020,991,1021,1039,1116,1124,1052,967,864,786,739,740,736,707,627,691,626,541,524,499,322,270,232,149,136,109,102,85,73,627,691,626,70,79,79,83,78,75,76,72,64,70,71,54,54,52,44,46,46,48,,,,,,,,,,,,,,,,,,,,,,,,,,,,,,,,,,,,,,,,,,,,,,,,,,,,,,,,,,,,,,,,,,,,,,,,,,,,,,,,,,,,,,,,,,,,,,,,,,,,,,,,,,,,,,,,,,,,,,,,,,,,,,,,,,,,,,,,,,,,,,,,
waveOut,4,1,57,61,61,54,55,55,59,63,61,62,61,52,68,84,85,95,104,132,140,170,174,200,204,204,200,278,478,557,606,647,678,594,552,560,608,641,721,900,1036,1115,1201,1238,1164,1101,1072,997,921,1017,1088,1055,1071,1112,1066,1018,1002,975,936,829,749,757,747,728,738,682,594,477,467,405,368,345,338,178,150,132,131,119,108,89,88,108,113,111,109,100,106,98,94,94,93,77,80,79,89,89,73,,,,,,,,,,,,,,,,,,,,,,,,,,,,,,,,,,,,,,,,,,,,,,,,,,,,,,,,,,,,,,,,,,,,,,,,,,,,,,,,,,,,,,,,,,,,,,,,,,,,,,,,,,,,,,,,,,,,,,,,,,,,,,,,,,,,,,,,,,,,,,,,,,,
waveOut,4,2,48,52,51,47,46,48,51,54,52,57,52,51,48,49,44,60,63,62,62,61,47,40,45,45,46,59,61,60,64,80,91,93,101,274,320,367,373,410,411,602,608,621,769,776,703,747,833,851,896,954,1011,1009,995,1057,1070,1098,1166,1095,1032,988,1036,1027,1062,1052,1066,932,814,794,883,840,872,859,820,815,778,713,693,681,462,460,426,415,370,353,270,200,143,137,112,93,87,96,98,98,99,87,64,148,250,293,297,301,281,214,222,218,226,238,235,172,191,176,139,132,126,104,115,119,119,127,120,104,,,,,,,,,,,,,,,,,,,,,,,,,,,,,,,,,,,,,,,,,,,,,,,,,,,,,,,,,,,,,,,,,,,,,,,,,,,,,,,,,,,,,,,,,,,,,,,,,,,,,,,,,,,,,,,,,,,,,,,,
waveOut,4,3,45,43,44,48,46,51,49,53,46,47,46,48,42,48,45,45,68,73,71,73,72,59,59,60,58,56,54,55,54,57,60,53,59,69,85,86,87,81,71,61,95,116,126,138,172,276,368,463,650,690,712,769,799,734,777,868,891,937,1014,1053,1186,1158,1139,1151,1116,922,967,1079,1074,1129,1174,1214,1147,1067,1002,932,830,776,814,788,815,751,732,632,586,462,443,276,229,185,158,133,124,117,109,82,87,90,91,89,86,72,67,70,72,72,87,113,117,116,118,112,88,74,76,69,64,63,79,74,76,82,85,,,,,,,,,,,,,,,,,,,,,,,,,,,,,,,,,,,,,,,,,,,,,,,,,,,,,,,,,,,,,,,,,,,,,,,,,,,,,,,,,,,,,,,,,,,,,,,,,,,,,,,,,,,,,,,,,,,,,,,
waveOut,4,4,53,49,48,48,41,54,69,74,75,79,72,60,57,58,57,67,70,88,114,120,117,148,252,285,320,361,417,387,517,601,655,670,726,669,698,694,721,730,787,806,782,822,931,963,985,1095,1108,1037,1106,1146,1182,1188,1266,1223,1169,1094,1112,1090,1101,1165,1233,1153,1053,1018,941,798,821,816,707,572,503,395,309,266,240,178,179,173,161,175,150,120,123,125,94,99,92,96,93,90,95,136,128,127,131,136,133,138,147,147,133,97,96,79,76,78,,,,,,,,,,,,,,,,,,,,,,,,,,,,,,,,,,,,,,,,,,,,,,,,,,,,,,,,,,,,,,,,,,,,,,,,,,,,,,,,,,,,,,,,,,,,,,,,,,,,,,,,,,,,,,,,,,,,,,,,,,,,,,,,,,,,,,,,
waveOut,4,5,49,53,57,62,58,50,59,54,46,47,52,48,54,54,53,50,44,38,78,110,154,195,213,277,343,455,469,502,584,625,666,714,734,744,813,813,879,933,959,964,966,980,1133,1177,1142,1171,1177,1041,994,1005,910,906,919,1028,1044,1079,1051,1031,1002,1010,976,957,876,660,486,440,234,190,149,140,127,113,108,108,94,73,81,77,72,79,79,67,61,54,44,50,86,158,171,173,171,156,89,62,54,56,59,54,74,93,93,87,86,68,46,42,58,,,,,,,,,,,,,,,,,,,,,,,,,,,,,,,,,,,,,,,,,,,,,,,,,,,,,,,,,,,,,,,,,,,,,,,,,,,,,,,,,,,,,,,,,,,,,,,,,,,,,,,,,,,,,,,,,,,,,,,,,,,,,,,,,,,,,,,
waveOut,4,6,65,65,66,58,50,79,83,82,88,90,63,63,67,61,55,53,48,46,43,49,49,57,54,56,50,55,50,58,63,65,63,78,76,78,85,94,82,171,235,252,278,303,289,256,331,382,393,472,493,478,580,650,640,735,847,848,812,856,837,749,698,833,801,856,895,961,906,1016,986,1000,1073,1087,975,1011,1067,1043,1015,1038,1012,943,871,887,945,916,1003,1057,1027,943,953,798,730,747,798,753,779,665,600,497,554,475,459,429,403,177,157,134,104,91,77,69,63,53,52,54,58,66,78,80,77,77,75,89,87,132,138,137,127,126,92,134,136,135,136,133,90,88,83,88,81,69,68,70,65,65,64,64,59,55,51,51,55,54,,,,,,,,,,,,,,,,,,,,,,,,,,,,,,,,,,,,,,,,,,,,,,,,,,,,,,,,,,,,,,,,,,,,,,,,,,,,,,,,,,,,,,,,,,
waveOut,4,7,59,65,64,63,58,59,53,57,61,59,55,54,49,55,59,61,71,75,65,64,67,64,61,62,61,59,51,47,64,66,152,167,174,181,199,226,261,274,288,356,392,393,386,391,409,358,347,395,410,376,395,446,517,579,645,670,735,767,792,916,982,1037,1071,1087,1145,1239,1176,1186,1294,1250,1199,1315,1375,1352,1297,1251,1166,1122,1014,957,940,886,782,748,707,616,544,406,270,209,154,104,82,76,70,56,55,54,59,57,53,47,44,56,60,64,63,64,54,51,50,60,72,78,82,83,76,64,58,64,68,76,79,76,70,70,75,,,,,,,,,,,,,,,,,,,,,,,,,,,,,,,,,,,,,,,,,,,,,,,,,,,,,,,,,,,,,,,,,,,,,,,,,,,,,,,,,,,,,,,,,,,,,,,,,,,,,,,,,,,,,,,,,,,
waveOut,4,8,43,47,45,42,39,40,38,45,46,49,52,56,51,56,60,58,59,66,66,66,64,61,57,55,51,62,67,72,70,97,129,271,293,312,316,315,345,408,490,511,598,698,690,770,894,923,1046,1114,1123,1195,1261,1106,1115,1091,1061,1066,1117,1108,1129,1095,1028,1071,1043,1096,1044,1023,904,893,778,784,721,779,705,619,477,428,207,193,121,111,83,79,74,72,66,62,76,75,74,76,72,62,89,97,96,98,100,79,73,79,82,76,77,76,70,70,80,78,82,91,85,70,,,,,,,,,,,,,,,,,,,,,,,,,,,,,,,,,,,,,,,,,,,,,,,,,,,,,,,,,,,,,,,,,,,,,,,,,,,,,,,,,,,,,,,,,,,,,,,,,,,,,,,,,,,,,,,,,,,,,,,,,,,,,,,,,,
waveOut,4,9,70,70,69,65,61,59,62,68,83,88,89,106,99,91,89,85,62,60,54,53,58,53,50,46,46,45,114,131,134,136,145,103,94,98,98,108,276,331,352,381,463,497,467,495,513,482,520,740,818,851,889,951,946,914,968,1006,969,955,1100,1112,1162,1217,1230,1187,1187,1160,1081,1012,989,1028,1132,1116,1121,1060,986,815,852,897,867,867,850,784,642,604,479,342,281,247,213,194,171,135,123,111,86,94,93,92,92,109,107,109,111,107,88,82,77,75,74,64,68,71,76,81,84,78,77,69,62,58,61,63,65,75,77,86,,,,,,,,,,,,,,,,,,,,,,,,,,,,,,,,,,,,,,,,,,,,,,,,,,,,,,,,,,,,,,,,,,,,,,,,,,,,,,,,,,,,,,,,,,,,,,,,,,,,,,,,,,,,,,,,,,,,
waveIn,4,0,58,56,52,50,41,43,45,42,39,39,44,43,45,50,49,65,65,63,59,59,36,50,56,59,67,66,55,51,62,56,59,58,59,44,59,75,86,88,97,122,128,131,140,151,149,164,171,181,181,59,75,216,232,246,278,323,334,338,373,360,323,286,266,192,203,189,189,177,159,101,92,77,73,106,116,120,304,492,773,816,833,852,856,627,601,626,606,568,573,613,564,488,445,414,295,293,289,181,184,188,186,182,113,100,95,85,78,76,71,65,,,,,,,,,,,,,,,,,,,,,,,,,,,,,,,,,,,,,,,,,,,,,,,,,,,,,,,,,,,,,,,,,,,,,,,,,,,,,,,,,,,,,,,,,,,,,,,,,,,,,,,,,,,,,,,,,,,,,,,,,,,,,,,,,,,,
waveIn,4,1,55,62,67,66,63,64,64,60,60,64,56,46,43,46,46,47,63,82,83,83,83,79,60,67,69,72,67,76,69,75,87,97,125,148,188,205,250,259,274,292,281,264,258,257,227,256,259,262,258,265,248,258,246,239,228,227,185,178,173,146,128,126,130,144,148,153,342,530,555,671,711,693,630,625,598,697,790,767,755,708,586,396,408,425,375,343,381,313,273,274,276,169,144,223,222,207,205,202,102,86,73,69,61,74,74,78,,,,,,,,,,,,,,,,,,,,,,,,,,,,,,,,,,,,,,,,,,,,,,,,,,,,,,,,,,,,,,,,,,,,,,,,,,,,,,,,,,,,,,,,,,,,,,,,,,,,,,,,,,,,,,,,,,,,,,,,,,,,,,,,,,,,,,,,
waveIn,4,2,82,90,100,96,101,95,89,76,79,74,62,53,52,47,45,49,50,60,61,61,53,53,44,40,43,50,53,56,56,66,63,58,53,56,48,49,53,74,81,82,90,91,88,85,82,77,77,63,58,56,49,46,49,52,52,58,58,61,58,61,55,66,69,70,72,75,70,65,82,83,91,123,126,130,160,228,265,291,331,345,353,342,322,309,314,315,291,330,306,315,287,295,269,272,221,194,175,141,120,112,94,119,184,193,223,269,327,306,342,410,434,448,506,500,450,433,426,377,380,401,450,415,399,391,350,238,199,182,133,136,113,110,106,100,82,,,,,,,,,,,,,,,,,,,,,,,,,,,,,,,,,,,,,,,,,,,,,,,,,,,,,,,,,,,,,,,,,,,,,,,,,,,,,,,,,,,,,,,,,,,,,,,,,,,,,,,,,,,
waveIn,4,3,38,48,46,46,47,47,43,52,56,59,60,55,51,54,54,60,60,58,55,52,42,47,46,39,40,42,35,33,33,41,50,64,68,69,64,57,44,38,38,41,47,50,51,55,61,57,65,76,76,77,86,97,108,173,183,216,219,230,231,275,296,345,356,342,320,349,310,348,356,364,311,301,249,221,184,163,190,166,184,226,239,235,321,529,550,635,779,831,785,822,801,719,654,620,551,505,423,387,318,320,291,277,252,286,254,241,237,236,139,116,106,110,103,110,113,111,112,105,93,84,,,,,,,,,,,,,,,,,,,,,,,,,,,,,,,,,,,,,,,,,,,,,,,,,,,,,,,,,,,,,,,,,,,,,,,,,,,,,,,,,,,,,,,,,,,,,,,,,,,,,,,,,,,,,,,,,,,,,,,,,,
waveIn,4,4,90,101,90,93,83,86,78,86,80,78,77,72,64,59,58,57,56,50,54,59,61,59,70,71,64,70,72,65,61,70,61,63,63,66,62,68,67,65,62,59,69,70,99,119,132,162,190,222,223,245,280,279,263,272,265,226,235,236,241,245,246,219,232,214,199,174,173,127,138,248,266,329,474,491,470,512,557,527,554,542,576,633,603,606,644,601,516,539,497,454,418,343,216,380,370,383,386,398,230,216,187,172,147,130,106,,,,,,,,,,,,,,,,,,,,,,,,,,,,,,,,,,,,,,,,,,,,,,,,,,,,,,,,,,,,,,,,,,,,,,,,,,,,,,,,,,,,,,,,,,,,,,,,,,,,,,,,,,,,,,,,,,,,,,,,,,,,,,,,,,,,,,,,,
waveIn,4,5,50,51,50,52,63,56,55,57,60,57,57,59,58,48,38,41,46,50,57,58,55,52,51,48,48,49,50,51,47,46,47,44,42,44,50,55,59,71,71,75,79,78,68,71,66,61,58,62,64,127,144,156,163,190,195,225,266,270,286,299,306,307,326,319,330,314,297,293,289,247,237,218,194,174,187,172,161,149,134,80,72,59,50,49,233,299,589,654,679,719,784,735,795,852,885,846,755,646,558,394,328,322,336,322,316,295,264,245,234,225,214,178,116,87,81,77,64,,,,,,,,,,,,,,,,,,,,,,,,,,,,,,,,,,,,,,,,,,,,,,,,,,,,,,,,,,,,,,,,,,,,,,,,,,,,,,,,,,,,,,,,,,,,,,,,,,,,,,,,,,,,,,,,,,,,,,,,,,,,,
waveIn,4,6,32,44,46,50,52,52,44,45,47,51,51,52,46,46,44,54,56,59,57,60,55,52,53,53,47,46,53,51,47,50,46,48,52,53,49,51,50,50,58,63,61,55,50,39,32,32,37,38,41,42,51,50,48,47,52,45,42,41,39,44,46,64,74,115,156,173,221,239,270,345,398,385,385,380,335,293,292,284,257,222,189,184,221,233,222,215,206,155,118,108,104,127,136,166,529,609,717,739,767,733,733,682,734,728,596,572,616,577,615,652,674,576,533,519,468,365,350,334,216,163,160,158,151,114,106,81,82,86,88,,,,,,,,,,,,,,,,,,,,,,,,,,,,,,,,,,,,,,,,,,,,,,,,,,,,,,,,,,,,,,,,,,,,,,,,,,,,,,,,,,,,,,,,,,,,,,,,,,,,,,,,,,,,,,,,,
waveIn,4,7,74,68,71,74,60,59,59,56,63,63,61,61,59,54,55,55,60,58,61,64,62,56,55,47,41,46,63,70,76,76,76,74,69,66,69,68,60,55,46,42,38,33,34,40,39,47,65,79,82,83,81,68,53,47,56,61,59,58,58,54,47,62,69,85,122,156,219,321,361,409,435,426,372,339,297,297,355,350,369,349,315,221,211,164,152,136,113,130,309,320,332,353,459,448,669,752,780,806,897,801,785,772,685,510,437,410,380,376,356,339,198,165,154,153,140,122,117,115,117,84,82,81,71,50,60,83,,,,,,,,,,,,,,,,,,,,,,,,,,,,,,,,,,,,,,,,,,,,,,,,,,,,,,,,,,,,,,,,,,,,,,,,,,,,,,,,,,,,,,,,,,,,,,,,,,,,,,,,,,,,,,,,,,,,
waveIn,4,8,52,64,65,61,63,60,50,56,57,56,58,58,50,56,63,63,62,69,75,73,73,75,76,65,56,56,52,57,56,60,67,72,60,62,58,48,41,41,37,48,49,53,64,69,61,72,80,72,69,73,63,47,46,43,40,44,50,69,86,90,92,90,83,72,73,71,82,75,68,68,70,70,79,84,85,88,83,76,83,99,203,219,257,277,294,257,250,232,241,232,227,267,290,275,290,296,290,273,279,267,270,254,252,236,221,191,165,138,349,369,429,592,700,810,847,900,930,893,801,870,814,768,738,683,587,622,515,523,496,481,387,371,334,324,285,278,256,232,,,,,,,,,,,,,,,,,,,,,,,,,,,,,,,,,,,,,,,,,,,,,,,,,,,,,,,,,,,,,,,,,,,,,,,,,,,,,,,,,,,,,,,,,,,,,,,,,,,,,,,,
waveIn,4,9,52,60,63,64,62,54,47,51,55,67,66,64,63,65,54,56,59,110,192,215,222,226,206,134,92,81,73,70,71,75,77,79,79,77,79,66,59,58,64,59,61,106,140,166,220,284,289,296,318,309,306,336,371,351,336,338,310,257,258,256,217,207,195,179,177,139,115,116,265,395,447,568,768,872,1041,1168,1151,1127,1063,890,757,862,750,733,712,656,492,480,416,382,391,335,313,304,275,239,183,164,154,160,119,186,202,211,208,202,141,,,,,,,,,,,,,,,,,,,,,,,,,,,,,,,,,,,,,,,,,,,,,,,,,,,,,,,,,,,,,,,,,,,,,,,,,,,,,,,,,,,,,,,,,,,,,,,,,,,,,,,,,,,,,,,,,,,,,,,,,,,,,,,,,,,,,,,
doubleTap,4,0,62,66,74,84,86,89,86,87,84,82,88,91,79,70,100,111,119,137,248,376,528,731,925,946,972,901,761,534,491,413,469,484,463,592,592,737,785,823,739,742,590,541,507,489,434,386,305,254,209,183,160,158,136,113,91,94,95,96,96,78,71,63,62,67,65,66,65,65,60,55,56,61,64,68,70,70,64,73,79,82,82,92,83,77,73,67,55,53,58,65,72,70,68,78,79,77,76,75,60,59,,,,,,,,,,,,,,,,,,,,,,,,,,,,,,,,,,,,,,,,,,,,,,,,,,,,,,,,,,,,,,,,,,,,,,,,,,,,,,,,,,,,,,,,,,,,,,,,,,,,,,,,,,,,,,,,,,,,,,,,,,,,,,,,,,,,,,,,,,,,,,
doubleTap,4,1,70,71,68,63,74,80,81,80,83,72,66,67,66,74,87,91,103,107,111,122,125,114,188,475,559,739,862,899,799,755,603,431,390,392,393,592,756,940,1190,1383,1311,1236,1098,822,466,441,399,348,400,505,518,507,522,517,341,320,319,327,296,322,321,320,280,197,133,112,105,85,104,99,102,112,115,102,101,89,77,69,65,76,91,87,94,90,80,66,70,72,73,70,78,,,,,,,,,,,,,,,,,,,,,,,,,,,,,,,,,,,,,,,,,,,,,,,,,,,,,,,,,,,,,,,,,,,,,,,,,,,,,,,,,,,,,,,,,,,,,,,,,,,,,,,,,,,,,,,,,,,,,,,,,,,,,,,,,,,,,,,,,,,,,,,,,,,,,,,
doubleTap,4,2,70,76,83,85,88,77,95,94,97,98,97,78,84,128,133,130,132,132,103,105,118,119,129,155,168,167,230,279,285,278,322,551,799,936,970,1048,968,801,647,610,502,465,408,395,477,588,681,747,805,812,729,633,586,515,409,342,329,262,256,323,329,320,302,263,157,123,189,209,257,264,268,221,192,127,164,228,234,230,223,187,92,87,99,108,109,124,197,197,193,193,188,111,122,120,131,128,117,99,104,149,144,144,140,131,78,77,111,114,117,105,,,,,,,,,,,,,,,,,,,,,,,,,,,,,,,,,,,,,,,,,,,,,,,,,,,,,,,,,,,,,,,,,,,,,,,,,,,,,,,,,,,,,,,,,,,,,,,,,,,,,,,,,,,,,,,,,,,,,,,,,,,,,,,,,,,,
doubleTap,4,3,72,80,80,81,72,68,58,64,67,75,80,83,81,84,87,80,92,89,85,82,83,67,91,99,96,111,130,136,320,372,404,489,505,450,706,851,925,1082,1120,984,859,738,515,434,456,468,558,648,835,936,1120,1119,1054,926,821,532,452,453,389,326,305,277,235,243,358,356,380,384,376,240,223,167,142,161,200,207,190,193,167,119,107,98,87,84,71,75,109,127,129,135,144,138,136,132,122,110,95,79,86,92,91,83,76,79,98,105,,,,,,,,,,,,,,,,,,,,,,,,,,,,,,,,,,,,,,,,,,,,,,,,,,,,,,,,,,,,,,,,,,,,,,,,,,,,,,,,,,,,,,,,,,,,,,,,,,,,,,,,,,,,,,,,,,,,,,,,,,,,,,,,,,,,,,,,
doubleTap,4,4,56,56,62,69,67,64,62,56,46,41,70,72,78,85,88,70,74,76,72,80,87,108,144,213,291,311,323,330,329,511,648,794,943,973,883,800,674,495,449,427,555,703,972,1120,1157,1095,1001,702,394,256,232,380,395,392,395,393,216,212,341,345,344,339,341,199,180,178,169,153,152,393,216,212,152,157,166,171,133,135,137,110,109,116,133,134,138,126,120,103,91,93,91,99,97,101,127,134,140,137,143,110,130,117,117,111,123,114,112,111,111,104,85,,,,,,,,,,,,,,,,,,,,,,,,,,,,,,,,,,,,,,,,,,,,,,,,,,,,,,,,,,,,,,,,,,,,,,,,,,,,,,,,,,,,,,,,,,,,,,,,,,,,,,,,,,,,,,,,,,,,,,,,,,,,,,,,,,,
doubleTap,4,5,83,84,83,73,100,104,104,113,110,81,71,72,57,108,116,127,131,142,120,137,176,179,200,231,266,276,487,643,708,711,839,781,674,622,688,538,519,506,601,712,781,840,853,787,635,549,442,404,366,309,249,249,235,240,257,261,197,199,186,156,156,143,137,145,130,111,89,107,98,103,101,94,77,69,69,73,93,94,96,89,87,81,80,84,84,92,81,82,86,111,111,111,109,103,150,147,157,161,163,,,,,,,,,,,,,,,,,,,,,,,,,,,,,,,,,,,,,,,,,,,,,,,,,,,,,,,,,,,,,,,,,,,,,,,,,,,,,,,,,,,,,,,,,,,,,,,,,,,,,,,,,,,,,,,,,,,,,,,,,,,,,,,,,,,,,,,,,,,,,,,
doubleTap,4,6,79,86,105,114,111,106,103,86,89,136,136,138,141,128,92,99,97,90,96,87,73,96,98,103,122,122,105,105,93,59,57,54,69,131,149,172,187,235,249,254,514,742,885,955,1023,922,770,604,481,339,346,320,433,544,660,758,785,726,640,502,335,250,219,231,217,183,159,138,96,120,140,150,158,172,160,145,134,128,107,95,90,103,103,145,153,153,146,141,111,95,96,92,96,69,110,116,122,127,132,103,106,102,119,119,127,124,131,109,113,133,127,122,124,120,82,100,102,101,,,,,,,,,,,,,,,,,,,,,,,,,,,,,,,,,,,,,,,,,,,,,,,,,,,,,,,,,,,,,,,,,,,,,,,,,,,,,,,,,,,,,,,,,,,,,,,,,,,,,,,,,,,,,,,,,,,,,,,,,,,,
