
fist,1,0,78,75,74,73,65,55,61,73,74,98,96,94,86,86,69,64,63,67,91,82,85,91,107,87,87,84,87,86,92,91,103,107,95,94,105,97,96,98,96,85,82,95,91,89,114,136,144,216,276,297,346,355,454,434,454,428,420,277,267,223,204,237,230,222,205,207,163,159,189,185,166,163,160,129,131,131,138,138,149,137,150,138,141,111,114,104,104,97,106,102,102,115,153,149,152,151,145,152,154,154,151,159,124,121,117,153,153,142,149,154,125,186,290,362,365,370,362,334,260,255,244,207,112,89,74,72,73,71,62,71,71,79,80,79,70,71,77
fist,1,1,127,111,117,126,100,89,96,88,77,76,96,97,96,94,104,87,76,80,87,71,73,72,74,70,83,81,89,85,90,79,80,72,72,66,79,84,84,84,98,99,108,152,209,240,303,310,299,264,232,141,118,93,95,93,78,63,86,81,76,80,82,68,75,81,79,80,78,78,80,91,91,86,81,90,76,73,75,79,73,74,77,95,89,80,90,95,95,129,133,164,179,182,174,186,164,149,147,138,145,144,162,160,167,147,145,138,132,167,187,184,178,182,165,144,148,142,156,149,150,143,145,156,141,142,139,147,109,99,117,137,131,135,143,129,107,108,99,85,88,102,195,213,253,274,281,261,274,268,249,238,204,176,140,132,128,116,93,78,73,78,83,94,88,88,92
fist,1,2,40,42,63,64,71,75,78,62,63,64,72,68,68,65,58,54,62,68,84,82,73,73,71,54,70,72,68,68,70,59,79,92,91,98,110,100,88,99,121,113,111,116,151,151,160,200,208,199,204,205,206,200,189,176,165,140,144,131,141,147,129,136,149,176,181,180,175,167,151,147,146,144,151,132,121,114,117,113,104,100,107,98,86,90,106,101,99,106,109,110,116,115,111,100,90,97,116,120,114,121,111,92,84,87,78,73,73,80,103,113,122,145,158,150,151,165,169,158,160,152,154,142,146,137,138,118,106,92,90,79,64,65,67,66,69,74,73,68,85,83,83,76,81,66,64,63,66,63,63
fist,1,3,79,68,60,60,63,78,91,102,100,113,107,102,90,89,95,93,90,102,108,97,97,94,87,83,81,80,83,90,125,129,140,153,154,127,138,126,122,120,122,106,115,97,102,107,124,135,140,132,126,116,104,99,98,120,115,104,102,130,117,113,129,132,114,121,133,119,119,121,126,114,110,113,132,114,113,120,133,115,119,157,159,145,138,143,99,84,80,76,62,69,76,80,83,75,78,80,102,103,114,109,115,103,114,112,109,109,101,81,74,74,58,61,66,61,62,61,58,68,67,90,94,103,96,101,92,98,89,94,93,83,77,75
fist,1,4,64,76,81,68,69,70,54,75,79,78,84,87,69,65,75,85,83,96,106,101,94,102,101,100,107,103,102,89,85,76,77,83,95,93,113,125,132,127,154,156,165,166,193,199,192,182,189,173,149,153,168,159,147,156,179,161,151,153,141,106,113,144,138,147,140,133,94,103,79,77,74,94,88,88,91,93,77,82,85,89,97,122,118,117,115,105,82,84,81,75,79,76,81,86,89,85,80,68,59,55,54,59,75,84,119,127,130,137,133,117,114,113,95,98,84,108,104,104,100,98,60,59,71,75,80,83,81,69,69,73,79,76
fist,1,5,73,80,88,96,94,107,101,99,97,103,82,98,94,91,84,80,74,84,82,84,92,75,61,62,75,85,88,91,95,90,98,115,139,146,146,138,120,99,90,90,78,80,71,73,74,78,78,74,76,69,92,106,112,123,133,127,125,131,131,125,119,126,132,123,134,137,122,116,118,107,96,105,109,109,104,105,119,107,101,105,122,105,107,112,123,118,117,119,121,130,128,132,131,137,127,116,109,106,94,92,121,124,123,117,116,107,103,110,138,135,129,130,126,95,92,89,92,117,120,133,140,151,158,158,160,147,145,120,126,125,131,116,109,96,66,60,63,63,65,91,100,96,102,106,88,85,88,85,92,91,84,84,86,72,73,73,100,96,69
fist,1,6,47,55,68,71,77,79,86,85,106,103,104,97,112,116,117,120,130,118,93,95,90,75,83,82,81,83,95,89,95,96,94,84,74,88,92,99,150,160,158,166,163,125,144,144,131,138,140,119,120,122,154,165,161,158,173,141,124,128,130,113,128,134,123,125,131,114,105,123,130,131,134,151,144,132,135,138,116,117,127,121,146,157,148,139,140,122,101,100,97,84,65,76,80,91,94,88,87,110,123,136,144,140,124,114,105,100,110,107,93,88,84,66,72,76,78,73,76,75,66,64,65,76,80,82,80,88,87,79,87,86,81,76,81,71,69,68
fist,1,7,106,105,110,108,79,74,124,126,122,122,118,71,63,63,94,96,94,90,92,58,62,66,71,73,78,72,65,66,63,68,74,78,74,75,70,63,76,85,102,103,110,104,127,116,120,116,122,102,100,98,99,94,91,104,99,97,89,99,92,95,109,112,109,115,116,102,103,98,106,113,118,124,141,126,133,133,131,108,106,91,94,93,94,97,101,98,106,134,143,140,136,136,116,102,101,104,99,92,95,90,90,78,74,70,69,60,57,51,45,44,49,51,53,54,59,55,53,62,65,62,63,64,59,64,69,71,78,79,84,92,104,103,104,99,92,79,74,69,63,57,66,78,78,81,83,80,67,66,65,63,56,53,84,86,89,91,90,86
fist,1,8,54,84,93,105,111,117,103,102,108,107,104,116,113,98,93,89,80,80,75,76,78,78,99,108,110,118,118,109,113,128,132,126,121,146,134,130,147,146,122,127,138,132,140,137,144,135,131,134,132,120,120,127,132,147,158,165,155,146,166,160,155,164,164,139,139,134,122,116,102,92,81,82,101,98,97,98,109,97,106,114,114,103,108,100,91,90,92,83,76,78,77,82,75,89,108,109,104,113,100,78,79,81,74,79,93,97,94,91,97,84,81,79,78,70,71,76,82,84,81,94
fist,1,9,53,53,47,48,49,47,44,41,42,42,49,51,56,63,69,67,68,84,97,94,95,96,82,60,57,61,71,83,87,89,83,69,66,70,76,81,81,71,67,63,73,81,87,85,85,73,72,77,90,89,96,99,101,108,136,140,151,147,135,105,95,81,84,84,88,93,84,88,85,93,97,96,91,100,110,107,144,153,155,156,161,141,129,123,105,110,109,132,133,135,122,116,92,85,83,94,101,99,105,103,89,74,68,60,68,76,78,79,77,79,74,78,86,96,88,94,87,93,89,97,95,98,103,99,92,84,93,74,80,89,93,84,87,82,69,61,57,56,55,59,58,56,58,83,81,86,86,85,67,83,87,92,92
fingersSpread,1,0,74,74,82,79,83,96,98,82,86,113,105,105,103,100,75,110,112,113,120,114,88,84,93,91,89,90,92,86,111,131,137,141,161,150,148,149,151,154,166,172,193,220,203,205,208,198,169,195,201,210,225,227,234,260,268,249,286,297,300,321,319,307,282,239,178,190,163,166,199,204,186,169,155,117,105,113,121,113,151,158,156,154,154,106,78,79,75,72,71,86,86,87,91,91,87,82,86,92,101,101,107
fingersSpread,1,1,88,88,92,84,99,99,100,95,104,94,105,121,135,146,157,165,190,197,230,236,232,242,258,232,227,250,222,222,235,238,257,253,230,239,267,342,439,447,447,438,376,314,315,302,292,288,226,205,193,180,136,138,134,125,126,127,138,137,148,158,145,115,112,101,86,90,79,77,92,91,90,101,102,83,75,73,68,114,134,138,138,142,119,98,94,110,103,95,102,98,82,93,102,93,94,94,84,73,75,100,100,102,105,104,81,84,73,63,71,77,68,75,78,68,60,67,64,61,61,68,67,62,64,65,72,80,84,79,77,70,60,51,51,69,86,88,91,94,87,67,67,69,65,63,60,56,53,56,70,71,70,68,72
fingersSpread,1,2,49,61,63,62,65,63,65,65,69,64,68,56,54,48,61,75,81,88,97,94,81,73,68,81,80,82,94,109,91,105,116,121,113,131,120,111,110,125,130,144,147,140,138,126,129,168,186,195,206,214,195,208,199,186,173,162,141,161,156,164,181,180,160,179,195,190,197,214,213,192,186,178,167,166,170,169,185,187,175,168,181,153,143,144,144,122,126,115,109,106,98,109,123,132,138,145,126,108,93,69,58,77,88,88,98,102,92,88,98,98,99,99,95
fingersSpread,1,3,76,62,65,69,78,82,84,78,66,69,66,66,71,87,78,74,72,74,69,70,67,73,77,71,76,83,85,83,81,77,71,65,79,83,87,91,95,82,80,74,85,83,105,122,138,163,171,169,165,160,134,136,149,151,144,148,159,163,154,158,159,149,135,152,188,216,244,252,269,254,232,205,199,184,173,167,164,160,136,141,154,157,144,153,179,188,187,189,184,153,126,115,114,104,99,93,82,79,83,77,79,86,95,104,109,128,134,126,113,114,94,90,96,98,127,147,142,136,156,142,123,135,137,123,111
fingersSpread,1,4,45,51,53,55,53,54,49,48,49,58,68,83,80,79,76,66,53,54,64,94,97,94,95,97,73,79,77,82,85,83,84,109,117,118,147,164,169,187,210,201,183,173,172,150,148,164,160,155,178,176,183,195,202,193,201,215,232,222,207,214,204,190,206,226,250,240,229,219,215,178,226,250,243,241,249,220,251,262,262,273,265,204,185,162,122,110,111,116,119,109,91,88,79,90,95,101,99,106,92,84,79,111,103,104,105,102,75,79,78,69,79,75,76,85,89,81,80,72,60,59,79,80,76,80,82,65
fingersSpread,1,5,76,80,77,85,84,87,92,85,75,79,78,66,64,69,70,69,69,67,67,60,63,76,94,103,105,127,132,152,147,166,160,153,137,146,135,130,136,174,190,225,233,248,242,235,205,206,192,166,158,198,212,217,216,258,239,227,236,239,205,206,225,223,237,224,210,181,164,146,139,159,154,144,137,158,140,159,180,227,224,220,212,201,142,162,187,183,180,188,165,131,133,141,125,119,144,134,141,139,134,161,174,154,155,159,103,77,84,82,77,92,106,104,100
fingersSpread,1,6,55,59,67,68,75,78,78,72,71,62,55,55,52,53,54,80,84,85,89,88,78,76,80,78,82,84,87,106,109,105,99,101,87,94,98,106,135,140,133,134,129,98,97,113,133,137,147,143,154,143,138,130,142,127,128,158,178,167,167,162,169,184,195,205,208,187,147,136,115,143,146,149,153,161,173,160,169,174,173,145,172,187,189,208,231,237,227,228,216,186,158,144,123,122,159,159,167,165,149,106,104,109,129,151,153,150,139,125,104,115,111,106,100,88,63,77,82,88,87,101,115,115,117,121,112,93,92,81,81,89,87,88,90,83,79,81,81
fingersSpread,1,7,73,71,68,64,57,54,53,57,55,62,75,80,77,76,73,65,81,83,85,81,77,57,59,61,70,72,77,73,72,79,79,77,82,87,76,87,83,92,88,96,85,90,83,81,76,91,93,106,110,109,105,115,101,101,123,134,133,141,142,136,153,169,176,178,172,162,183,202,202,202,198,162,128,144,145,155,163,161,168,203,195,185,184,164,136,124,128,131,134,139,137,131,123,124,86,86,90,87,86,93,90,80,87,77,79,89,93,98,95,86,86,90,92,82,84,70,72,73,80,91,96,94,99,97,87,80,87,83,82,75,78,70,65,57,65,66,70,70,70,62,58,62,64
fingersSpread,1,8,66,73,74,71,76,76,69,70,66,57,53,48,43,39,44,47,51,52,53,62,67,67,74,77,68,60,58,58,58,61,70,68,63,62,59,53,60,63,70,72,75,73,77,70,72,63,68,73,74,86,97,97,94,97,90,90,90,95,103,109,126,128,120,115,131,132,151,151,152,136,117,113,143,150,151,161,160,141,136,149,165,169,174,179,179,153,140,145,137,134,139,144,125,139,129,140,132,148,145,137,120,139,139,126,135,135,124,119,123,119,114,99,78,75,94,118,117,119,115,139,135,133,133,133,96,83,86,90,96,93,86,91,85,80,83,81,77,79,76,70,76,78,75,80,75,70,70,67,57,57
fingersSpread,1,9,63,64,63,61,78,75,78,83,86,70,68,66,65,63,67,67,68,66,64,65,67,64,75,75,69,70,71,66,71,94,99,106,102,103,116,115,114,118,123,108,106,101,106,112,114,117,123,134,125,128,134,137,131,134,120,114,106,95,95,115,114,112,123,119,111,119,122,106,116,137,126,132,137,131,106,127,135,137,135,126,116,112,112,129,130,132,129,131,127,126,118,102,89,79,84,80,83,87,90,85,86,81,75,56,61,60,58,74,85,94,94,105,105,103,108,111,102,103,117,107,107,104,117,108,106,104,105,87,81,82,83,82,92,101,105,105,107,95,85,88,93
waveOut,1,0,123,134,203,212,214,211,227,154,144,155,156,121,124,150,164,170,175,176,166,149,148,151,162,179,178,193,193,240,293,315,466,492,557,635,656,619,749,803,836,972,1101,1106,1107,1108,1072,1027,1073,1046,1084,1091,1091,1063,1039,1021,923,842,716,793,697,757,742,787,727,715,731,720,658,679,700,768,822,878,820,781,757,724,654,648,633,454,344,315,290,264,246,228,218,216,197,204,199,162,154,149,131,129,126,123,122,126,99,129,140,139,135,166,147,140,143,143,110,100,92,127,162,149,151,178,187,161,167,162,144,131,122,117
waveOut,1,1,116,118,114,132,120,134,130,141,130,166,166,181,235,241,227,224,221,169,171,220,249,329,346,416,473,594,610,700,691,690,663,773,719,750,760,747,679,696,692,661,677,659,684,724,738,745,718,718,741,776,770,871,931,908,915,883,787,790,784,838,912,997,931,894,810,840,844,832,861,852,772,681,706,679,658,608,524,405,328,284,211,224,221,208,197,196,145,143,126,102,86,75,88,90,86,85,88,64,58,56,63,55,52,53,55,46,42,49,49,48,51,51,41,41,37,41,39,43,53
waveOut,1,2,120,118,129,112,121,122,110,102,116,102,110,114,140,155,162,171,221,236,252,262,261,246,226,202,192,211,199,252,284,303,312,322,335,423,459,499,543,641,630,632,649,700,657,628,724,731,693,787,895,838,951,987,933,950,977,890,904,909,828,850,819,770,802,825,780,787,791,747,687,666,624,574,490,459,378,348,294,252,187,194,168,153,131,114,93,100,102,106,91,112,105,99,90,85,50,48,44,44,43,37,34,31,35,38,52,60,62,59,64,58,53,86,95,91,91,90,71,87,92,91,91,87,63,61
waveOut,1,3,77,87,87,90,96,115,111,117,133,143,132,138,145,155,133,130,128,141,130,135,149,154,147,134,143,163,189,200,208,219,224,224,242,244,238,252,321,345,405,483,489,551,558,580,573,569,491,520,535,520,538,611,637,591,609,634,581,568,632,772,786,853,841,881,750,737,755,765,722,752,774,674,675,663,693,674,697,681,637,563,509,435,375,323,244,217,221,213,200,224,202,179,161,172,109,136,138,152,142,148,135,137,124,138,136,122,140,150,155,162,169,147,130,103,85,72,64,73,108,109,113,125
waveOut,1,4,134,132,78,101,96,109,120,134,124,136,137,140,147,179,186,186,217,205,180,193,190,151,152,156,150,163,176,187,175,154,146,134,164,183,188,185,187,178,167,207,202,215,196,205,172,181,161,215,239,248,288,320,321,408,433,467,489,474,466,467,450,449,453,478,494,529,531,554,486,571,620,656,704,791,775,847,859,930,928,893,834,802,714,652,683,607,657,683,738,753,769,730,699,681,640,608,596,569,484,459,434,384,316,277,218,183,154,165,154,132,135,130,127,113,117,114,126,95,94,129,132,123,117,116,81,88,104,106,105,120,112,113,112,132,113,120,114,116,113,115,114,122,123,105,120,131,120,118,125,119,104,98
waveOut,1,5,97,106,108,95,117,112,127,128,134,115,151,150,161,173,222,209,204,232,247,212,213,239,254,265,281,277,268,261,239,228,268,404,459,500,553,557,485,486,465,468,518,595,613,602,654,674,621,587,618,636,600,628,615,629,573,592,633,660,653,652,637,601,587,599,568,566,617,585,543,561,603,541,594,621,672,650,649,634,591,510,433,350,276,298,211,210,218,213,168,175,161,138,116,113,99,106,131,124,120,118,121,96,111,113,112,87,76,52,45,50,52,52,53,51,45,79,79,105,109,110,112,121,103,106,109,118,118,122
waveOut,1,6,120,130,139,117,116,116,133,109,113,110,112,92,102,107,111,110,111,120,135,137,141,140,123,138,137,130,123,131,112,114,115,123,122,103,106,108,123,122,122,119,136,117,119,141,157,189,205,203,193,225,251,262,277,416,455,557,614,634,605,593,588,586,648,641,736,750,770,761,749,757,763,758,841,866,783,784,909,823,984,1002,1042,1015,1035,907,896,859,764,794,759,752,714,730,659,724,719,648,554,499,327,266,234,226,205,173,160,153,127,108,100,88,72,69,80,81,77,104,114,109,111,112,103,100,102,101,104,111,115,111,109,156,164,166,171,181,162,137,144
waveOut,1,7,143,141,147,128,125,113,108,109,108,156,166,154,145,144,115,125,133,144,156,137,129,129,141,136,144,141,152,128,131,144,156,162,165,162,160,143,138,148,144,161,197,222,225,236,237,227,217,239,244,247,257,301,319,407,438,449,488,485,444,544,604,571,646,657,600,669,771,827,886,951,957,928,866,881,882,808,822,854,826,750,794,790,806,779,768,756,711,646,630,652,596,541,563,552,512,530,533,441,384,366,273,243,208,210,154,139,140,131,117,108,126,124,120,125,124,125,121,128,130,127,109,119,110,98,100,92,80,78,79,82,99,96,112,113,109,105,98
waveOut,1,8,124,127,128,146,152,166,180,177,185,174,153,160,175,146,151,160,149,165,171,187,191,209,199,225,250,282,311,322,358,338,338,416,509,488,518,564,617,635,699,775,870,881,879,923,961,906,866,849,785,712,718,723,743,871,872,830,880,900,816,806,830,781,766,749,697,691,637,678,639,666,639,764,639,643,612,602,393,429,352,338,286,284,225,221,202,177,173,199,193,216,247,317,363,360,348,329,267,192,201,225,218,212,180,169,134,132,141,124,117,119,142,128,130,141,153,127,123,137,130,100,104,127
waveOut,1,9,105,117,120,117,127,132,136,135,139,138,127,115,113,122,118,116,115,117,104,124,109,107,107,119,102,109,119,130,131,137,130,130,118,106,103,121,111,118,118,111,106,141,141,142,156,151,133,157,162,174,169,216,230,232,235,256,297,303,308,335,350,335,317,341,361,473,457,491,596,624,551,597,618,586,594,625,739,791,851,994,1024,983,1032,992,918,938,964,894,887,815,861,784,753,839,818,670,672,660,461,433,410,314,233,210,164,166,169,168,149,142,163,167,161,162,144,120,136,146,148,163,161,138,133,133,119,117,115,122,135,131,125,123,141,148,144,140,144,143,118,112,112
waveIn,1,0,106,99,83,78,136,146,156,157,156,108,102,109,132,158,172,175,212,221,236,247,274,257,270,258,251,240,229,206,210,212,201,214,226,227,238,235,235,248,244,227,225,234,235,230,229,222,229,198,190,188,235,211,209,216,227,178,167,169,148,113,102,98,69,68,69,68,83,91,103,126,132,121,131,139,144,151,164,156,146,122,123,146,142,159,167,157,162,165,155,152,152,106,97,101,96,94,94,99,85,75,71,82,96,90,94,98,102,88,114,122,150,147,146
waveIn,1,1,133,111,126,125,107,94,97,87,112,122,123,117,107,79,64,83,88,97,97,115,114,112,117,130,149,187,204,247,245,232,205,196,150,150,147,147,143,127,137,137,138,141,176,180,184,188,202,174,158,161,160,135,151,154,149,131,131,130,120,108,110,113,90,95,96,93,88,83,86,92,97,99,96,100,104,99,113,117,104,104,104,94,103,106,114,135,138,152,153,168,156,150,140,157,148,180,184,174,168,165,142,141,138,153,142,126,122,138,112,109,106,105,123,117,116,128,129
waveIn,1,2,87,85,78,82,115,107,104,142,173,157,158,166,169,142,137,137,132,99,91,91,95,123,148,148,153,149,142,111,118,112,118,93,89,88,95,87,106,102,99,94,101,86,119,121,129,130,154,141,139,132,167,163,156,165,198,188,187,195,201,184,180,165,166,156,137,121,137,127,121,128,148,146,156,158,153,148,149,149,145,150,132,114,99,89,76,113,174,217,226,235,221,184,142,139,147,154,159,149,155,138,161,150,151,156,162,127,138,177,182,175,176,175,140,121,119,119,106,117,108,118,128,126,131,130,136,125,125
waveIn,1,3,62,63,71,62,54,52,52,96,103,105,106,107,95,114,126,131,134,119,108,94,91,103,97,86,96,98,97,101,114,106,123,120,118,110,111,94,93,139,150,157,171,171,147,146,144,129,127,138,131,144,157,165,164,164,159,151,159,152,159,153,154,138,127,115,123,119,124,122,118,99,96,84,105,110,116,110,108,85,88,94,95,104,108,101,124,145,144,144,150,130,103,103,105,91,86,103,105,102,109,102,101,107,109,109,113,112,145,153,151,162,160,123,114,146,136,128,139,137,104,120,134,121,121,134,124,111,109
waveIn,1,4,124,129,124,121,111,109,73,81,85,136,137,134,132,189,165,164,164,170,101,98,138,144,140,139,145,101,93,90,98,67,69,69,74,62,59,57,73,66,64,66,66,49,47,51,52,50,57,63,71,83,91,110,120,131,131,66,49,136,156,148,154,154,149,141,137,130,123,137,130,130,125,120,102,96,91,98,102,113,108,119,128,143,138,146,144,136,139,162,166,161,160,144,116,103,109,104,102,119,120,112,109,107,85,89,132,142,139,139,156,125,112,111,125,116,123,129,130,149,146,142,141,141,109,88,90,101,104,95,121,140,132,130,130,124,98,95,98,130,128,131,129,136,116,105,98,94,77,89,90,110
waveIn,1,5,69,72,73,114,120,120,122,123,77,80,107,120,118,120,125,102,87,104,126,139,148,150,138,136,111,113,115,122,112,129,121,120,114,107,112,125,125,128,133,104,88,104,109,133,140,142,135,133,109,114,113,129,128,137,134,134,113,119,117,121,124,120,118,108,101,100,129,138,143,144,188,188,190,204,210,179,169,155,131,124,132,167,180,178,170,156,121,106,119,128,134,149,144,134,124,129,93,93,109,128,120,121,121,107,95,107,106,118,112,113,128,135,130,142,136,140,140,139,133,169,148,159,157,161,129,132,109,107,100,110,118,117,129,165,165,153,154,150
waveIn,1,6,94,125,126,119,135,147,118,115,119,104,101,105,109,103,120,121,122,121,118,101,94,87,82,82,93,106,115,107,112,101,79,78,88,98,103,104,94,89,76,87,89,92,94,91,79,80,75,72,72,83,94,103,106,109,100,91,87,92,110,122,137,150,143,138,129,119,114,142,134,136,140,136,125,131,134,124,121,106,105,100,119,122,133,125,133,138,141,138,141,130,110,100,79,75,73,67,68,126,154,156,154,163,128,100,104,132,127,125,119,113,107,101,101,103,105,91,92,100,110,137,135,133,135,134,105,98,92,101,109,108,117,124,105,98,100,84,104,109,101,99,137,120,120,124,137,108,105,112,107,95,88,85
waveIn,1,7,109,99,120,117,109,125,151,133,133,138,119,74,62,51,36,45,44,73,83,90,88,110,106,101,96,94,88,97,97,101,102,95,113,138,143,153,152,127,120,114,105,104,110,99,101,100,99,98,88,99,101,102,91,94,80,72,83,91,93,111,114,108,111,111,105,110,119,123,120,115,130,125,119,115,130,150,166,174,374,394,391,396,409,251,208,191,171,126,107,107,105,92,98,98,94,95,88,105,109,125,128,136,130,128,114,123,124,139,143,146,135,136,117,108,105,131,153,148,147,162,155,131,138,156,140,132,145,140,123,120,121,114,107,131,166,157,171,175,153,115,147,116,111,135,139,117,120,134,111
waveIn,1,8,104,114,118,118,106,100,87,58,135,143,145,151,159,112,100,98,96,87,71,66,66,52,44,49,81,91,91,91,90,62,56,57,59,57,73,66,68,77,76,76,80,81,75,81,86,92,100,99,107,108,103,120,123,121,118,118,100,100,93,90,98,117,121,147,169,167,172,174,162,156,162,149,153,151,142,144,140,148,154,150,141,134,112,90,103,96,96,93,104,84,97,125,189,195,195,196,182,130,120,136,132,131,154,155,145,161,161,180,182,180,162,165,109,97,104,156,160,160,161,151,120,111,126,137,158,146,147,138,131,111,110,156,156,153,157,162,132,123,146,150,163,154,171,156,150,131,131,108,99
waveIn,1,9,119,100,101,85,91,114,113,113,98,91,106,122,121,121,131,94,79,75,76,96,102,99,100,100,59,61,79,78,83,87,78,56,67,89,91,98,107,104,85,87,85,76,105,105,99,93,91,54,85,85,85,86,83,81,85,101,120,120,107,105,91,112,132,133,131,132,113,103,110,122,126,120,116,135,149,174,171,168,158,141,105,103,109,95,113,120,123,132,150,144,152,150,139,120,116,104,123,131,140,136,135,122,108,93,91,83,102,119,117,117,114,91,76,75,76,80,77,67,115,120,124,138,151,127,124,157,154,165,176,186,162,167,159,153,155,155,166,165,151,134,147,121,104,113,116,91,92,115,118,119,116,131,128,119,142,151,135,140,143,120,116,116,116,122,133,134
doubleTap,1,0,149,154,156,139,124,150,158,157,152,143,113,100,141,147,136,136,251,374,437,552,586,569,503,458,345,311,293,301,441,489,562,566,557,452,391,268,270,259,258,244,217,164,153,123,77,101,125,132,134,141,152,138,127,121,117,74,80,119,136,135,132,126,112,93,94,96,108,100,119,129,133,123,112,98,82,74
doubleTap,1,1,143,139,122,124,102,97,102,113,164,300,352,372,381,365,265,204,186,165,176,211,241,303,350,358,354,334,274,220,201,171,150,130,139,131,122,121,133,101,95,92,91,82,77,75,109,114,105,116,119,106,101,100,87,109,108,116,117
doubleTap,1,2,62,73,113,129,135,208,279,378,492,569,576,546,487,385,259,187,195,206,213,244,333,438,430,421,417,371,228,214,202,178,154,166,158,150,139,109,81,76,93,109,109,114,116,96,85,101,100,96,97,90,67,64,93,95,95,95,92,63,58,78,83,85,85
doubleTap,1,3,80,102,111,111,111,121,103,99,117,127,101,102,98,76,57,56,55,123,320,424,469,498,507,420,327,260,228,193,279,445,562,571,592,555,448,312,280,228,220,176,127,117,95,85,74,66,72,71,69,66,64,58,86,97,98,98,101,76,62,86,97,100,106,109,90,86,77,72,72,73,69,74,75,71,95,92,90,92,93,69,93,104,98,101,104,83,64,84,83,84
doubleTap,1,4,114,115,112,119,118,116,246,345,404,427,425,368,288,193,140,126,214,316,419,487,542,540,495,426,348,255,200,176,136,124,124,95,79,82,81,68,73,74,72,64,68,73,88,92,98,102,105,106,109,109,105,100,80,89,97,97,93,97,79,96,96,97,93,99,77,102,110,107,103,98,153,171,174,177,176,115,91,87
doubleTap,1,5,123,101,104,107,109,107,104,96,93,90,88,107,123,128,154,207,214,249,361,380,356,358,350,238,190,181,169,173,223,360,474,528,528,523,455,340,270,248,224,201,187,141,125,119,117,123,119,127,105,106,111,120,117,112,101,90,80,90,100,100,101,98,79,75,75,73,76,79,64,70,88,95,92,99,99,85,92,97,90,83,88,92,88,90,99
doubleTap,1,6,123,144,139,138,141,132,114,117,124,120,110,109,98,90,109,97,137,162,237,396,429,420,414,376,196,108,93,91,105,167,282,351,446,458,447,420,380,274,256,251,194,181,160,147,129,121,108,101,101,105,98,87,84,86,88,86,85,95,96,99,109,115,108,100,87,119,134,133,134,137,113,87,94,94,94,83,75,88,99,98,94,95,87,77,80
doubleTap,1,7,109,108,67,78,105,166,186,215,240,231,198,190,158,107,105,98,144,192,327,399,429,425,414,323,229,165,136,108,95,91,84,76,77,81,86,91,90,101,97,90,87,108,95,89,94,95,64,67,77,84,83,83,82,76,68,68,92,101,104,103,100,81,79,82,95,100,104,102,120,120,118,118,111,83,64,88,86,91,109,113,102,118
doubleTap,1,8,91,99,98,103,106,194,216,234,273,283,235,230,219,174,155,135,114,172,250,331,344,358,346,295,213,193,182,159,154,138,129,98,104,110,107,105,102,76,56,79,85,92,93,95,86,88,84,79,83,98,105,111,113,108,138,135,130,129,130,103,100,96,97,101,88,80,83,82,93,96,99,100,103
doubleTap,1,9,62,85,85,86,92,89,79,89,87,78,79,64,94,171,219,272,299,309,278,245,207,172,143,153,202,254,315,359,513,509,499,468,436,232,209,160,155,148,143,124,103,131,130,128,128,129,104,98,94,110,145,133,134,133,122,126,132,132,137,144,116,107,107,106,108,95,89,86,78,68,76,94,101,119,116,111,95,92,78,81,84,91,97,95
fist,2,0
fist,2,1
fist,2,0,122,112,123,123,123,139,163,163,156,168,157,130,117,128,113,113,112,112,101,101,111,115,109,110,102,91,83,109,130,146,143,143,125,100,81,84,95,99,118,129,134,131,131,127,116,108,104,118,114,114,127,134,122,111,113,109,113,110,129,122,131,136,142,130,144,127,137,135,155,164,171,154,171,165,159,149,145,129,115,98,98,102,102,104,107,114,110,106,113,108,99,103,101,87,79,100,127,142,152,157,157,151,149,168,175,168,154,142,113,111,111,126,139,139,131,184,187,198,200,209,191,183,172,166,175,152,171,188,193,210,239,234,238,244,221,183,180,162,171,175,183,177,172,143,135,118,117,106,118,122,128,118,109,105,113,108,105,136,135,117,122,150,135,166,188,189,169,166,133,102,99,122,112,107,111,115,91,104,106,102,95,100,83,74,77,80,72,92,98,102,115,117,114,112,116
fist,2,1,95,87,84,105,105,120,129,131,117,111,110,120,119,114,114,106,93,103,113,114,108,97,95,87,95,107,103,103,102,95,88,86,72,67,62,85,99,113,125,135,122,113,101,85,81,84,89,93,100,101,110,110,112,119,159,159,167,174,170,139,136,143,158,161,183,188,188,172,170,139,164,175,179,204,238,229,214,219,231,257,283,283,284,266,230,185,188,179,162,141,129,129,131,144,160,175,179,184,177,163,157,143,131,134,115,128,149,147,139,150,138,117,111,123,129,131,129,130,122,109,113,136,137,133,158,172,167,167,186,163,160,163,169,165,169,151,167,161,152,147,142,100,105,103,103,114,128,135
fist,2,2,122,119,119,98,87,90,96,96,92,117,120,127,133,150,138,139,135,142,126,134,146,157,144,140,125,106,91,86,90,89,87,82,103,99,103,102,104,114,117,116,114,111,93,103,114,118,120,114,100,87,86,89,106,118,121,124,125,118,112,119,118,114,130,152,157,159,179,172,164,153,154,132,133,119,129,137,157,156,170,168,159,139,147,148,159,170,182,171,172,169,162,148,170,170,169,168,166,151,140,151,157,156,143,136,126,124,124,147,145,133,130,142,157,174,176,171,168,137,142,138,137,128,121,145,175,184,185,189,148,106,92,98,102,116,126,149,179,197,206,209,199,189,181,187,186,187,177,173,163,153,164,158
fist,2,3,104,114,97,96,98,104,100,106,117,112,108,120,114,109,109,100,76,76,79,101,108,113,116,109,87,94,92,85,78,79,85,101,101,104,111,95,79,76,95,103,117,123,131,116,116,99,101,107,106,94,93,101,92,102,108,114,109,111,115,123,123,142,145,140,132,139,110,137,155,166,170,180,158,147,136,140,130,149,187,190,195,206,219,208,235,236,247,238,243,247,263,245,237,238,211,180,191,198,166,165,159,158,138,135,121,116,122,151,158,163,182,170,149,140,140,118,137,133,132,140,150,131,138,144,150,154,168,167,177,174,160,140,134,128,132,132,136,131,111,98,102,101,104,112,100,94,89,94,98,117
fist,2,4,164,170,141,130,114,117,116,102,96,106,113,117,118,115,115,108,104,106,118,140,138,136,127,121,94,95,106,125,140,147,144,136,125,98,77,82,84,92,95,101,99,93,84,94,94,91,105,121,124,115,116,119,102,110,133,132,123,127,115,89,118,123,122,120,123,106,128,153,156,160,152,142,121,142,147,159,166,199,185,206,206,197,190,220,223,228,238,272,263,267,267,286,357,408,577,694,743,733,740,722,640,601,570,562,478,519,504,480,486,440,337,316,419,380,368,368,374,252,205,181,170,155,153,148,130,128,100,120,117,118,118,123,100,120,149,152,146,167,170,154,162,161,155,137,129,118,131,123,123,122,115,139,148,146,149,152,117,111,114,124,128,135,126,128
fist,2,5,128,125,123,151,149,152,161,159,123,140,133,132,130,130,107,120,116,128,153,155,153,170,172,156,151,151,125,132,147,149,143,141,122,119,131,146,149,152,142,129,106,103,104,95,121,137,145,139,148,142,137,137,153,205,268,305,404,557,623,666,666,137,145,789,943,1015,1024,1194,1225,1213,1111,1152,1071,1067,926,930,895,834,784,840,877,871,846,753,714,722,742,688,758,811,924,942,986,954,887,715,569,444,394,376,285,266,298,261,265,267,267,183,156,146,149,158,158,138,106,100,90,85,93,122,123,117,118,111,95,116,122,122,126,120,118,136,155,164,159,194,200,186,184,200,151,125,138,152,183,188
fist,2,6,88,82,93,99,96,93,84,75,106,107,111,112,122,112,115,132,139,128,124,143,132,129,138,144,137,133,142,142,136,135,136,124,127,126,114,131,126,113,106,105,84,103,111,107,109,110,98,103,100,96,95,114,109,119,129,129,117,119,127,152,157,156,152,225,215,213,214,218,135,124,123,139,142,150,150,145,150,164,154,153,153,127,93,96,87,104,104,119,127,135,130,129,119,102,92,80,95,98,91,93,97,100,102,103,98,103,106,115,116,118,138,133,131,139,142,117,123,118,110,122,123,122,128
fist,2,7,100,99,112,107,121,134,130,129,132,122,119,114,98,92,102,88,97,101,118,105,109,102,101,94,110,118,121,116,116,109,111,128,137,139,136,151,140,139,138,138,110,108,107,94,99,96,102,101,114,110,110,98,103,90,85,93,98,113,118,117,115,129,117,124,137,138,127,135,127,119,117,112,112,163,186,187,198,193,159,128,134,124,131,139,173,180,181,202,240,237,228,228,215,182,169,184,197,183,164,156,135,111,109,116,109,162,160,158,156,154,94,87,82,75,92,90,118,131,137,130,134,128,118,115,125,130,128,131,126,108,110,120,122,124,125,119,99,95,103,112,116,117,127
fist,2,8,99,98,106,103,100,92,94,96,95,112,125,131,121,131,124,116,117,119,121,108,107,117,118,112,115,117,128,147,159,162,165,149,140,123,114,120,118,108,116,125,112,116,109,97,88,96,80,79,92,96,82,89,97,88,85,89,88,87,85,92,117,126,127,162,197,213,213,271,270,468,571,635,770,792,741,688,723,699,838,833,862,852,805,640,664,642,658,592,581,491,429,286,292,298,291,291,266,261,264,271,259,228,167,163,152,152,147,145,88,77,89,100,101,111,126,129,128,141,133,117,111,110,117,125,132
fist,2,9,111,131,125,107,125,141,140,150,177,173,157,150,150,124,122,126,132,139,139,147,161,178,162,160,166,147,106,114,114,83,87,96,99,121,145,145,148,155,147,138,142,139,121,121,110,123,150,176,181,192,190,168,152,134,117,117,125,126,136,132,128,122,112,108,119,122,130,128,128,124,111,94,102,119,119,121,127,135,130,134,145,165,164,159,155,153,138,150,164,160,168,158,153,153,156,138,148,155,169,177,186,199,212,191,193,209,206,183,180,184,204,190,184,177,159,97,98,102,134,137,133,132,133,112,106,111,116,148,143,158,172,189,175,174,171,163,135,111,108,96,102,107,124,140,149,146,145,144
fingersSpread,2,0,88,97,108,156,166,171,179,192,183,189,183,177,166,149,128,141,155,152,145,145,157,147,151,186,196,187,208,208,176,182,184,150,133,125,114,164,164,182,196,205,170,174,202,220,217,212,213,182,155,138,141,148,132,128,146,145,141,147,176,186,190,204,207,185,167,156,136,124,136,146,157,168,178,169,164,147,132,120,110,111,133,151,174,191,205,197,184,178,182,163,194,195,193,170,175,159,161,147,151,145,149,145,139,151,171,149
fingersSpread,2,1,214,226,213,206,233,198,174,170,176,135,118,115,119,89,110,119,119,125,132,107,96,97,91,83,103,125,129,132,126,120,123,117,119,130,130,114,151,148,143,140,141,121,120,125,134,141,166,173,172,177,184,163,158,162,149,134,173,195,198,197,209,186,158,180,191,182,172,187,159,157,153,158,144,142,159,178,172,166,190,227,213,209,231,225,170,172,172,152,145,170,164,164,155,155,129,124,125,132,164,156,168,170,175,133,150,144,133,133,132,143,153,157,145,163,156,177,176,183,170,179,160
fingersSpread,2,2,138,159,131,119,122,121,120,148,155,152,167,158,147,149,151,130,128,122,128,121,134,126,121,108,127,132,139,133,133,110,91,78,101,99,108,110,133,126,161,173,177,166,166,140,147,160,170,167,205,190,186,197,204,173,186,192,186,191,179,180,170,166,159,160,151,141,126,123,165,164,172,187,187,173,164,158,148,184,171,187,196,189,156,152,145,137,142,145,155,145,155,151,140,125,135,114,120,133,146,150,173,175,173,163,183,175,177,187,186,151,148,159,148,144
fingersSpread,2,3,135,127,128,149,156,146,143,137,131,131,130,144,164,160,170,196,200,192,187,173,144,139,139,140,141,130,113,84,100,130,140,140,166,174,165,163,168,147,125,115,103,111,110,121,126,129,124,190,193,204,205,201,160,149,142,143,141,129,130,153,167,185,183,176,163,163,186,191,197,196,189,151,143,166,180,201,207,206,205,177,150,140,147,141,146,140,191,188,188,199,208,220,242,233,225,232,203,193,198,207,216,206,193,190,179,149,142,149
fingersSpread,2,4,219,184,156,163,144,116,98,103,130,139,136,142,139,118,130,128,126,135,132,136,137,137,142,143,124,142,149,136,137,143,144,130,133,145,139,128,129,126,96,87,90,93,105,120,127,127,140,150,155,164,175,174,165,160,150,137,129,161,159,176,189,192,173,169,160,150,154,146,151,146,139,124,115,108,96,91,120,133,130,131,130,112,120,136,137,139,132,123,124,141,144,150,160,151,137,135,151,151,155,156,151,141,129,132,155,155,150,146,163,155,158,161,159,173,155,152,144,150,99,121,122,123,134,141,133,172,173,173,173,174,135,155,140,139,131,132,110,107,104,104,102,100,110,109
fingersSpread,2,5,139,123,158,159,152,140,138,118,118,131,133,133,121,123,108,103,105,86,77,78,92,94,103,120,120,117,113,108,92,97,97,117,174,187,200,213,206,172,156,141,154,177,167,174,212,190,184,195,206,175,184,170,158,141,141,131,137,143,144,124,127,122,121,132,145,177,175,172,180,178,153,171,179,164,162,154,156,148,152,153,200,246,251,251,266,255,201,192,180,196,181,194,196,202,182,167,147,143,155,175,202,202,205,189,174,145,149,144,145,121,109,110,114,128,135,140,155,175,166,186,198,201,192,209,194,196,174,171,191
fingersSpread,2,6,168,192,199,175,156,157,158,171,186,228,236,225,209,191,148,133,128,131,129,138,161,163,163,170,168,152,157,154,151,159,162,146,141,135,109,89,103,102,108,114,130,126,133,131,131,134,142,141,145,148,131,133,150,152,216,245,244,241,253,224,220,220,215,206,225,217,214,226,232,191,171,165,152,166,173,180,185,186,173,170,161,168,169,162,151,150,133,140,131,149,158,182,180,178,162,188,169,157,163,192,181,185,190,183,180,167,186,181,191,175,178,155,156,141,162,153,180,179,178,150,148,120,118,127,161,176,173,175,200,177,167,190,194,192,191
fingersSpread,2,7,157,161,156,160,156,160,153,154,150,163,152,159,149,160,143,154,146,157,124,124,114,114,112,150,158,177,178,183,162,156,124,120,109,124,134,149,183,179,171,168,171,154,163,157,147,137,110,131,127,154,158,174,168,194,213,220,216,202,188,151,141,139,145,132,125,124,127,125,131,126,119,117,109,101,102,101,99,107,112,113,107,120,123,150,153,166,183,186,159,179,184,170,173,182,211,273,303,376,523,563,560,583,597,587,556,687,674,651,554,535,439,432,390,388,387,233,214,207,213,206,190,138,126,130,132,127,127,127,86,52,68,75,92,118,158,169,202
fingersSpread,2,8,119,119,90,87,104,127,135,137,134,121,111,111,110,146,165,162,152,162,177,165,158,163,180,185,180,184,181,154,80,73,122,163,177,179,183,151,105,84,81,71,65,90,90,101,104,117,103,103,104,100,86,82,89,79,75,76,94,96,132,136,159,156,160,147,166,164,187,190,188,186,168,152,141,150,136,158,166,186,168,178,178,161,151,161,145,133,132,119,123,121,122,131,137,152,160,155,149,151,137,137,134,137,130,133,130,162,159,190,188,193,172,197,172,157,168,169,141,150,178,166,160,161,154,139,146,156,160,175,166,175,172,163,153,175,150,147,165,163,150
fingersSpread,2,9,156,156,148,127,122,147,157,182,186,212,205,207,195,206,185,175,158,174,172,167,169,200,182,172,169,176,161,156,147,155,142,129,134,130,112,104,88,117,151,158,184,191,180,167,166,161,147,140,169,189,177,192,193,160,133,136,120,106,104,155,153,154,157,168,130,138,134,143,129,116,115,118,126,126,134,144,158,146,147,142,124,110,125,133,134,126,125,128,151,161,196,199,221,203,221,210,269,249,276,325,349,327,334,325,263,226,196,178,152,143,122,127,137,150,154,169,159,156,154,150,154,157,147,162,159,139,142,204,208,209,224,229,179,167,170,162,159,165,153,147,141,137,137,128
waveOut,2,0,156,146,151,152,205,192,215,218,230,191,213,197,179,169,168,138,127,129,116,116,126,134,137,134,127,121,127,129,131,149,169,175,185,194,192,193,188,192,217,227,226,268,277,379,435,454,435,449,395,341,344,423,474,494,486,465,401,385,377,399,415,436,381,339,353,354,334,318,296,281,259,230,259,261,225,224,242,222,247,275,266,250,237,222,226,235,246,292,294,255,270,265,208,191,196,179,177,175,160,137
waveOut,2,1,172,191,184,202,191,189,180,177,160,178,194,185,178,171,154,107,92,150,184,188,188,187,166,135,139,152,153,130,139,137,140,162,173,166,175,187,176,185,227,296,320,329,324,304,237,194,269,372,382,401,405,389,330,378,451,492,502,511,499,446,410,362,328,310,286,299,368,406,411,405,392,389,359,320,335,340,350,333,335,309,304,238,240,241,235,213,177,162,170,187,180,192,219,212,205,241,281,275,308,313,286,244,237,200,234,255,261,324,327,298,311,308,239,254,279,262,256,251,225
waveOut,2,2,213,216,176,184,170,197,190,204,205,217,206,205,196,199,184,168,179,183,172,181,164,171,177,175,171,179,160,149,141,131,144,174,203,215,255,324,355,377,387,402,364,331,310,335,341,345,350,373,375,392,402,428,441,415,412,437,458,444,443,431,407,381,361,356,331,373,378,380,403,413,379,356,352,333,316,306,331,334,322,305,284,271,275,289,306,343,328,318,315,328,281,288,298,298,266,301,309,336,349,347,313,292,217,201,232,272,278,292,276,262,206,171,187,193,190,197,201,170,191,177,198,205,205,179,180,156,159,166,174,174,174
waveOut,2,3,172,174,218,231,204,182,181,131,136,134,150,172,166,167,204,199,184,182,167,163,168,166,181,202,168,169,183,174,152,145,127,103,92,82,103,129,138,151,180,186,173,169,224,224,225,232,248,201,206,248,263,278,303,315,292,295,297,327,347,363,371,363,332,296,287,289,309,290,289,300,300,286,306,307,270,257,237,290,279,279,262,257,156,152,175,212,222,226,294,324,312,315,316,274,249,235,222,229,210,174,163,153,146,187,233,268,279,266,242,215,192,214,221,213,219,231,199,209,219,195,172,228,220,218
waveOut,2,4,116,143,157,169,212,260,258,253,246,209,167,160,172,179,179,162,159,156,157,160,162,170,150,140,156,162,177,191,205,208,205,186,198,203,207,204,204,205,197,173,180,176,169,160,158,134,129,104,125,158,193,197,196,177,150,137,151,152,153,156,156,134,129,104,182,193,213,259,290,284,384,489,486,476,534,524,447,452,464,420,373,354,393,398,370,348,349,304,322,337,349,360,358,316,358,362,393,406,406,422,487,477,450,447,376,240,181,184,191,207,217,207,238,231,256,252,245,202,207,181,185,190,210,192,171,174,171,151,149,171,168,164,165,162,145,131,167,171
waveOut,2,5,143,178,196,215,212,229,229,215,192,185,164,152,164,163,180,183,165,156,173,158,162,165,162,137,137,128,121,150,162,161,159,155,113,154,191,199,205,206,163,115,125,114,113,116,129,110,140,143,151,162,170,152,161,162,157,174,194,233,261,290,317,331,337,334,321,295,271,280,274,309,394,425,432,444,438,363,347,308,299,257,272,265,247,223,226,217,194,218,242,285,275,286,275,259,214,242,229,234,233,292,287,286,283,312,256,229,286,297,254,265,266,233,234,292,310,312,306,298,242,210,201,179,171,204,195,198,192,193
waveOut,2,6,192,193,175,210,275,285,308,310,287,207,186,155,149,133,130,123,83,81,82,104,113,135,136,175,232,250,249,256,262,221,201,198,194,168,155,147,148,217,215,242,285,286,255,276,270,272,289,302,306,337,327,322,308,301,285,281,283,307,313,293,299,295,272,302,295,270,286,311,311,353,435,439,539,607,650,690,770,761,823,865,874,834,810,824,783,780,744,762,706,815,804,942,902,846,783,735,567,553,647,540,553,542,556,406,435,437,487,471,456,392,332,214,211,217,226,212,219,243,240,265,296,318,298,318,313,279,243,298,311,308,307,319,273,250,313,330,327
waveOut,2,7,201,205,228,236,224,203,198,169,173,182,178,177,201,188,187,178,173,132,132,132,132,147,159,168,171,175,168,154,146,152,155,147,155,162,144,148,176,194,185,209,215,213,199,190,163,143,121,123,152,177,199,282,329,342,358,386,368,346,366,364,377,359,387,359,355,351,347,310,306,284,216,201,179,248,317,364,420,487,495,465,437,464,490,457,461,459,407,370,375,440,471,499,440,437,396,382,353,351,344,321,405,384,394,443,477,394,416,426,413,378,396,463,611,666,706,709,702,727,688,659,643,580,353,269,270,286,274,287,299,252,218,217,209,208,214,214,226,245,234,236,264,253,228,230,189,149,177,176,169,180,204,189,188,193,192,150,146,176,227,260
waveOut,2,8,214,194,194,195,201,186,186,186,183,186,186,184,176,176,167,136,117,111,107,112,109,139,142,141,124,131,134,135,130,159,163,148,162,224,244,248,284,325,359,358,377,405,420,436,500,584,572,584,604,609,566,578,547,521,499,447,452,472,421,376,445,481,471,483,512,487,417,414,402,383,376,371,400,398,362,332,332,275,294,294,294,281,275,257,249,225,221,194,195,208,244,249,254,240,228,192,191,203,206,214,214,220,252,244,228,217,199,125,163,259,269,273,284,269,185,163,164,144,131,165,195,242,252,275,251,249,203,216,195,235
waveOut,2,9,141,153,163,171,156,166,154,148,169,154,140,138,166,142,147,161,195,171,179,189,206,190,183,172,154,115,84,78,84,95,109,127,169,168,169,166,155,115,112,100,112,105,94,90,91,64,69,82,82,86,96,105,113,143,200,203,271,306,305,279,281,225,195,191,207,254,288,347,394,431,430,424,374,379,349,323,316,309,248,231,244,227,233,271,254,242,243,247,205,278,273,306,330,355,310,310,315,331,304,328,341,325,290,286,282,324,355,354,368,365,357,304,413,485,482,464,486,408,309,290,307,295,320,338,349,341,343,311,290,298,282,278,260,247,334,333,343,358,363,287,284,269,250,249,237,227,220,209,205,180,195,172,178,202,203,200,211,256,235,296,288,286,246,244,170,187,172
waveIn,2,0,117,113,112,102,102,74,84,79,82,76,89,84,90,89,96,82,83,80,94,94,94,90,107,106,112,123,141,132,125,121,115,112,114,119,122,140,134,150,155,157,145,139,120,120,109,109,110,115,101,108,103,124,122,138,132,131,129,129,116,121,122,106,98,109,108,111,104,101,80,66,49,52,49,66,73,79,82,154,182,187,188,201,240,241,253,254,246,165,171,180,183,193,195,186,181,183,171,181,181,176,202,207,199,183,198,194,207,239,250,224,209,203,172,143,146
waveIn,2,1,101,106,106,106,151,167,165,177,179,153,122,130,111,103,84,85,62,61,60,62,65,76,87,106,108,110,110,102,84,77,60,47,52,57,66,73,77,75,71,64,62,58,67,76,77,80,97,106,104,108,115,111,100,106,103,120,121,128,124,128,124,120,111,117,125,106,104,129,122,128,132,136,120,121,118,115,117,106,101,88,85,68,80,85,76,79,85,79,79,80,92,103,111,124,189,202,200,207,219,180,162,166,164,140,132,124,115,104,162,210,237,247,250,225,182,152,160,157,157,167,168,151,172,202,200,206,204,184,150,148,140,139,143,140,152,171,179,206,226,235,219
waveIn,2,2,163,139,137,137,129,128,132,135,136,129,114,142,143,138,131,129,99,83,75,84,90,90,99,105,98,108,109,114,115,116,103,98,93,106,109,116,118,120,120,127,131,137,143,140,140,130,122,113,119,131,136,154,162,159,150,158,141,147,182,193,211,217,212,187,186,167,170,159,146,130,113,90,92,95,94,105,105,99,91,82,59,53,52,47,45,47,50,50,51,55,103,131,134,140,146,125,123,127,143,141,159,168,186,186,210,201,185,168,169,159,172,178,232,266,259,258,259,244,207,214,206,195,187
waveIn,2,3,265,286,238,246,245,223,181,205,181,192,210,218,189,169,164,159,178,193,200,236,238,216,198,196,138,114,125,143,171,178,178,169,158,120,103,99,99,97,111,142,137,162,178,174,168,168,150,135,150,148,183,204,227,225,222,200,181,159,159,172,198,221,230,221,218,190,151,137,143,140,157,162,155,150,136,114,107,104,91,84,73,64,60,63,59,58,55,46,37,57,164,190,201,209,232,206,194,186,190,192,178,181,186,174,158,146,154,175,188,176,195,214,228,234,245,231,202,179,170,154
waveIn,2,4,203,173,161,166,163,139,124,160,193,199,195,201,167,122,104,102,95,123,122,119,136,144,125,128,153,148,136,133,133,104,95,96,98,89,83,77,65,63,62,89,96,100,99,107,101,109,109,145,143,143,139,151,122,130,140,145,139,155,164,171,175,185,174,173,156,152,162,164,171,185,192,181,182,179,192,194,196,219,218,203,198,210,193,180,181,192,172,164,205,196,174,189,191,160,155,156,136,124,99,109,110,114,125,132,137,155,147,141,135,123,105,95,80,76,73,52,49,48,44,34,38,110,146,216,239,256,285,281,245,240,231,176,164,150,193,259,270,275,296,282,229,236,305,311,318,333,346,319
waveIn,2,5,224,204,193,174,234,235,273,284,284,245,244,184,200,200,220,242,235,229,217,208,217,220,212,217,208,176,201,204,200,198,208,194,181,200,208,206,209,216,213,198,200,186,181,169,167,151,145,152,140,138,115,112,86,102,107,118,128,130,132,128,144,139,168,175,186,180,184,165,156,142,142,132,130,118,122,132,146,150,172,166,157,152,161,151,155,152,169,160,178,191,188,168,174,162,150,152,153,139,124,116,118,111,106,99,97,80,80,78,73,61,56,55,66,213,241,267,273,308,254,273,278,292,260,262,303,318,315,369,376,321,316,409,406,476,493,487,406,370,266,239,272,290,288,407,471,448,437,461,396,342,358
waveIn,2,6,271,256,265,253,234,259,261,244,255,256,225,208,202,184,176,165,196,193,201,181,211,188,185,192,203,180,174,178,155,136,136,131,133,144,150,143,152,144,139,153,147,149,153,173,169,187,175,172,153,127,106,118,132,133,132,123,111,95,87,87,92,104,99,106,136,152,179,195,197,190,186,183,184,179,190,191,163,139,139,105,87,83,83,70,62,50,48,41,143,290,328,391,474,514,509,537,534,480,444,446,415,391,379,437,411,467,478,501,435,394,310,321,294,297,399,456,456,445,439,371,317
waveIn,2,7,248,250,249,284,277,268,259,302,295,310,317,318,283,253,248,258,291,265,274,273,254,225,223,225,202,208,208,227,213,225,223,215,220,251,240,240,230,199,146,133,102,81,81,123,152,162,170,172,146,120,118,113,110,113,128,130,128,131,126,113,100,104,110,104,113,130,141,145,148,149,141,136,121,123,110,104,85,91,80,82,92,99,104,113,110,99,100,90,75,78,82,73,72,73,80,80,82,81,81,72,62,57,93,145,160,175,188,255,265,266,287,302,256,255,273,303,321,308,284,280,274,258,267,286,284,289,273,298,289,273,220,221,240,270,269,313,318,280,299,341,333,340,360,332,320
waveIn,2,8,261,257,250,236,198,158,158,192,240,224,220,244,232,207,218,231,207,256,259,253,237,236,175,138,144,147,148,140,142,134,181,208,212,222,238,223,264,276,278,274,261,200,179,178,167,172,162,178,189,190,189,184,177,162,191,191,212,204,202,171,192,194,198,199,223,208,198,193,191,157,148,133,129,118,127,125,135,134,130,119,115,95,88,79,78,68,64,62,65,68,135,204,274,289,293,276,276,224,260,266,264,279,272,270,286,317,451,503,492,495,482,341,262,256,236,222,198
waveIn,2,9,235,253,268,249,244,231,246,228,208,216,220,196,232,261,267,271,275,237,198,161,141,121,162,178,172,169,172,136,123,134,131,134,151,166,166,161,141,165,172,169,179,166,171,176,197,177,180,192,180,157,163,166,147,158,155,146,133,128,124,131,125,124,144,143,129,134,136,116,106,109,98,86,79,79,67,59,48,46,132,169,210,227,245,224,237,210,198,179,166,118,113,123,174,188,214,261,275,265,286,283,247,243,237,234,223,236,226,258,269,266,256,272,261,250,253,269,249,238,215,237,220,232,219
doubleTap,2,0,223,235,238,228,193,200,204,203,213,216,181,167,171,192,192,194,213,248,230,248,277,271,243,241,227,199,175,153,189,197,190,191,200,191,170,204,231,220,193,187,145,112,190,224,227,254,329,296,282,294,288,212,219,204,216,200,188,183,200,172,183,197,203,214,241,230,226,222,223,191,194,188,186,162,170,157,167,168,195,251,255,242,239,241,186,191,218,218,199,191,182,157,148,149,137,160,164,163,170,192,196,180,182,194,200,185,196,193,185,157,150,201,213,193,204,226,190,182,190,177,161,183,194,211,223,219,195,181,155,165,163,153,183,178,162,178,185,178,204,203,202,193,199,201,199,187,199,210,206,202,197,245,226,210,207,214,142,116,101,101,109,154,174,218,237,229,214,200,152,122,111,92,96,208,274,312,310,311,260,216,171,227,227,238,233,233,207,215,192,186,180,154,166,173,160,179,184,226,236,254,241,234,181,171,139,133,131,117,115,121,132,151,156,149,164,174,176,177,187,207,204,186,181,179,136,139,160,172,163,157,156,146,138,143,158,150,165,155,152,159,162,160
doubleTap,2,1,254,234,212,216,204,169,150,155,152,179,175,197,216,208,189,182,176,168,189,203,204,194,177,175,157,183,183,198,201,227,217,221,214,237,229,225,241,263,252,233,227,197,159,106,110,111,129,176,252,260,263,254,221,127,109,114,129,141,155,169,185,194,195,347,436,463,470,470,371,250,184,164,195,213,223,209,214,204,187,183,181,177,164,159,165,169,170,150,142,138,144,131,129,156,171,169,157,167,173,154,150,192,199,181,184,190,162,173,176
doubleTap,2,2,164,173,159,135,124,118,138,192,203,212,234,228,178,172,167,147,121,126,151,144,138,182,189,197,213,224,193,195,188,178,184,203,204,183,193,182,163,153,148,130,113,115,128,128,124,206,264,286,287,286,243,172,108,103,132,167,194,202,222,232,336,386,389,431,460,377,312,309,246,159,156,153,162,168,173,198,206,198,190,185,148,134,126,117,117,120,155,166,179,199,200,175,162,144,115,130,154,159,157,153,139,110,112,112,117,129,143,137,143,142,142,127,124,103,107,98,117,148,171,166
doubleTap,2,3,162,176,192,195,213,213,202,197,203,163,147,150,166,156,162,170,198,179,175,181,175,155,151,154,143,141,147,146,149,150,172,161,190,206,217,204,222,199,182,171,173,150,161,151,138,120,101,71,67,88,110,115,197,223,242,251,271,231,208,176,160,176,186,187,237,263,262,302,336,328,306,290,242,213,202,202,190,230,225,225,229,230,199,184,162,152,182,178,177,186,189,172,148,152,139,147,167,193,209,211,202,181,153,123,116,127,121,139,141,144,141,146,141,164,166,169,161,166,148,145,160,176,171,168,173,162
doubleTap,2,4,211,211,222,194,169,143,122,93,107,140,145,160,167,194,181,172,164,167,129,176,185,184,184,180,121,104,97,119,135,152,154,179,182,192,188,191,174,140,115,113,135,167,219,232,225,207,177,150,151,173,192,250,259,253,264,288,271,266,267,276,268,258,240,237,217,198,192,190,203,202,200,199,201,204,201,189,177,220,202,181,172,164,86,78,89,91,101,113,123,138,169,167,167,157,147,120,124,110,117,112,126,132,163,173,176,173,165
doubleTap,2,5
doubleTap,2,6,117,164,179,194,200,188,168,149,139,151,177,192,228,231,226,220,208,168,169,169,162,160,172,170,190,201,211,205,194,173,161,139,132,136,128,122,119,116,114,110,194,197,219,227,238,173,165,144,144,135,137,184,186,197,195,187,157,150,146,166,182,168,182,168,147,136,132,134,130,148,162,173,160,172,163,162,164,161,145,134,110,97,93,127,135,153,166,177,156,157,170,156,168,183,189,174,174,166,171,173,170,175,182,161,148,142,132,101,105,120,126,150,197,210,212,214,212,172,155,173,175
doubleTap,2,7,173,165,158,156,152,156,164,160,152,151,174,188,196,180,168,149,148,139,142,145,152,144,143,159,167,180,185,204,223,225,213,201,177,140,142,190,233,234,237,232,184,110,121,165,173,208,251,270,245,258,244,216,188,200,178,198,203,197,176,165,138,146,153,171,186,175,154,155,149,149,148,145,140,132,144,151,152,153,147,148,156,151,160,162,155,167,167,162,176,167,140,139,145,148,153,160,155,153,135,139,137,158,151,153,141,143,132,140,157,160,175,171,164,161,157,135
doubleTap,2,8,186,192,192,178,147,142,139,130,142,139,123,107,103,69,101,113,140,166,191,189,185,170,149,133,143,158,164,164,156,147,165,161,165,175,171,146,154,164,154,151,143,152,128,141,147,146,136,146,130,122,121,114,125,122,118,117,138,119,121,121,134,116,120,129,133,135,150,165,178,176,175,171,169,169,176,175,186,180,159,156,158,167,165,171,173,173,150,164,181,184,184,177,163,140,138,124,134,134,159,157,202
doubleTap,2,9,161,160,173,205,216,206,221,219,200,217,225,227,256,273,258,313,323,306,284,286,208,171,170,197,202,269,265,259,265,276,215,228,245,232,214,220,208,187,197,189,193,199,221,206,246,370,400,400,404,381,260,206,192,204,218,232,245,258,239,259,266,287,282,275,241,212,171,147,139,130,141,165,187,230,250,252,231,199,148,110,107,173,181,179,192,206,163,172,205,205,192,192,195,189,176,168,158,159,148,147,146,149,140,127,129,127,130,127,120,121,160,163,185,195,197,165,155,116,104,126,150,174,264,268,257,252,254,179,166,166,174,159,186,214,214,208,213,175,135,151,152,151,155,164,146,135,131,130,136,140,157,141,135,117,109,73,71,100,116,129,136,158,200,193,197,200,195,138,145
fist,3,0,115,116,109,143,146,150,148,149,180,191,201,204,208,149,136,141,137,133,210,261,407,464,572,594,611,540,540,488,457,446,485,441,408,488,477,450,569,614,552,553,572,470,399,401,401,402,442,451,442,424,411,345,319,369,383,372,391,388,337,369,325,315,324,315,252,261,279,259,253,292,275,251,283,289,294,400,415,400,409,381,282,256,248,215,186,158,163,163,162,166,166,143,169,168,172,173,159,113,111,100,112,127,169,178,179,176,172,141,184,196,188,194,197,166,163
fist,3,1,146,139,145,148,141,115,122,109,108,149,150,146,153,160,142,134,135,124,112,142,155,156,157,157,141,138,142,143,145,143,139,144,148,157,165,192,207,213,231,213,187,207,200,186,202,254,240,245,238,250,217,217,224,308,328,384,388,405,373,407,368,359,341,329,290,308,367,359,385,393,395,364,377,353,317,309,299,303,319,357,354,374,379,385,357,384,376,378,453,448,410,385,361,223,220,226,218,220,199,181,149,153,158,155,141,137,147,133,145,143,143,123,128,143,159,150,157,154,150,139,136,127,151,144,148,155,155,131,110,96,143,141,146,161,185,191,192,225,230,213
fist,3,2,104,89,93,143,180,180,180,191,167,135,145,157,169,167,177,170,157,125,129,106,108,140,156,148,155,157,128,123,122,111,102,107,104,124,127,135,144,143,131,132,131,146,137,134,140,153,169,177,188,188,184,158,165,155,160,154,145,131,123,101,93,99,101,121,221,261,278,325,329,283,266,261,200,199,227,240,256,276,284,277,297,273,258,271,286,254,284,332,328,335,339,358,326,338,311,298,250,239,200,212,228,222,233,239,219,193,201,179,198,198,191,188,186,144,180,183,182,194,201,170,179,170,152,136,128,138,142,153,153,154,156,157,143,146,147,117,123,149,157,150,163,175,151,174,173
fist,3,3,120,133,137,129,100,103,90,126,143,157,154,158,137,128,125,140,141,157,158,151,164,170,175,170,165,140,126,153,170,177,179,179,129,104,116,123,128,123,124,128,137,132,135,154,186,216,254,267,278,272,262,273,300,318,307,324,310,292,271,308,335,356,361,360,376,329,359,344,353,292,286,202,219,192,197,194,198,215,197,193,189,161,91,90,102,106,104,108,111,95,101,100,110,111,124,124,151,141,139,145,143,117,113,133,138,136,142,153,144,141,145,154,140,161,146,170,174
fist,3,4,150,165,146,156,157,158,160,166,152,153,167,132,131,142,132,110,117,116,103,106,188,195,191,194,224,161,146,153,154,91,85,88,70,64,70,71,65,68,77,92,88,89,128,144,152,162,171,160,160,161,158,185,178,189,178,191,172,187,204,242,255,256,263,238,219,266,276,282,297,295,234,243,213,181,160,160,110,108,111,127,126,123,122,123,114,102,106,119,126,113,111,104,91,71,72,69,69,68,74,75,72,78,85,83,121,134,141,139,142,115,104,100,106,111,120,129,133,127,118,113,109,102,103,110,99,108,119,120,132,140,125,110,121,125,134,135,152,149,137,119,119,107,97,86,88,89,72,73,78,92,121,126,123,118,109,78,71,85,95,97,94,92,82,83,80,87,86,108,104,115,116,117,102,118,113,108,108
fist,3,5,89,92,96,105,109,119,130,126,129,120,121,114,118,104,110,101,100,96,106,98,118,130,136,136,135,122,113,123,116,122,119,114,90,88,89,78,82,91,93,86,129,141,140,152,157,140,135,144,132,134,144,143,143,146,141,134,152,170,178,199,204,207,191,207,200,196,202,243,273,291,305,314,312,372,396,436,460,459,431,523,634,799,872,937,975,1091,1145,1169,1167,1150,961,751,665,611,533,686,698,723,804,871,818,815,810,690,605,510,472,405,383,287,277,256,232,215,210,207,219,154,142,152,155,136,119,110,79,72,67,63,55,62,78,85,89,88,82,68,70,70,76,76,77,79,78,79,82,76,67,66,56,52,58,66,67,79,87,83,76,85,90,88,94,119,130,127
fist,3,6,68,78,99,103,102,106,106,86,78,75,71,64,85,84,90,96,95,76,95,102,97,107,121,108,101,121,112,99,97,96,80,94,98,102,113,102,89,84,90,80,83,97,105,103,135,144,136,127,124,87,71,76,92,123,138,141,141,139,142,158,169,183,192,175,165,172,176,251,266,277,292,290,232,223,212,177,163,169,176,156,164,158,147,134,140,124,126,109,93,84,101,100,105,101,114,109,110,102,108,109,102,101,106,99,88,84,80,74,86,76,73,75,82,78,89,93,92,92,84,74,66,67,63,68,78,79,94,88,95,93,101,100,102,92
fist,3,7,79,77,69,67,62,73,83,95,96,94,92,94,95,95,97,88,88,81,86,89,90,82,73,75,78,91,91,94,91,91,86,85,86,91,89,86,83,83,75,81,80,81,117,129,122,119,126,104,112,121,121,118,112,99,90,99,113,111,105,103,97,79,86,91,95,103,106,121,134,158,170,193,214,212,203,188,176,154,164,159,170,167,160,137,133,147,140,145,151,151,125,117,97,87,87,87,86,84,94,91,88,87,84,66,63,69,83,85,86,82,85,71,69,77,80,78,91,91,82,85,78,70,85,90,101,102,253,264,266,263,278,154,131,124,142,109,112,129,133,119,126
fist,3,8,116,126,149,129,120,127,132,104,104,107,94,72,78,87,105,133,134,136,139,139,116,116,109,145,139,132,130,137,88,81,139,143,146,151,162,120,125,138,136,117,114,102,75,67,71,75,79,78,98,100,95,88,89,78,75,77,80,84,71,66,80,84,76,84,86,80,88,97,95,100,99,89,73,70,64,72,80,92,150,158,158,171,180,155,177,195,187,174,174,153,134,143,145,131,118,110,90,89,81,80,75,66,86,97,101,105,112,104,95,108,120,121,114,111,156,157,155,166,168,122,113,111,103,105,103,95,99,114,131,128,125,130,125,123,120,133,128,123,107,115,102,98
fist,3,9,103,109,91,99,103,105,99,119,120,138,137,138,123,120,98,101,93,97,123,122,115,128,125,100,112,127,124,126,138,133,121,112,126,123,123,118,132,138,128,120,121,119,100,96,103,111,130,159,181,187,209,240,228,233,236,246,207,214,223,232,205,208,215,204,207,221,240,250,248,243,238,226,202,203,195,180,180,168,151,140,156,136,149,145,154,142,136,120,114,107,92,88,105,116,112,120,136,129,113,138,137,120,114,139,114,105,123,124,102,118,152,147,149,180,175,165,167,174,155,155,151,148,144,132,123,117,135
fingersSpread,3,0,103,115,122,107,100,109,100,101,115,125,115,107,97,88,71,80,80,92,99,110,130,152,150,151,172,181,184,203,202,184,182,174,160,167,169,172,173,182,183,189,189,188,185,182,202,221,220,223,226,212,193,189,178,172,166,153,167,161,154,146,139,117,117,118,111,109,99,89,83,76,58,64,63,62,79,95,109,114,110,121,127,131,129,144,131,115,92,100,90,86,95,108,101,95,102
fingersSpread,3,1,102,102,94,116,120,128,143,141,116,136,130,119,129,130,101,100,105,98,102,114,119,133,137,133,124,135,149,146,145,146,130,104,117,128,134,156,159,163,172,186,183,196,194,204,199,188,175,178,152,177,185,196,190,203,199,213,211,211,235,222,202,209,203,170,170,185,179,188,192,196,185,176,169,192,181,183,172,166,115,112,99,91,95,97,83,76,74,68,73,73,66,66,64,52,45,46,57,62,61,67,71,89,117,132,130,131,120,111
fingersSpread,3,2,93,92,99,99,104,109,109,107,109,112,94,86,95,102,95,98,102,85,71,68,88,95,99,101,129,114,119,125,142,136,138,141,149,142,129,153,148,146,143,146,131,169,174,196,210,211,186,179,179,172,207,212,217,209,211,186,191,188,171,197,208,227,251,278,282,271,258,230,224,218,225,217,215,207,189,199,197,201,226,226,207,211,227,211,193,197,186,163,126,127,108,104,93,81,82,78,71,73,91,127,141,144,142,131,94,69,72,68,67,74,79,72,73,73,60,51,49,48,45,44,49,58
fingersSpread,3,3,73,67,79,83,85,86,92,79,78,75,71,82,84,83,82,83,62,67,65,69,70,73,66,71,66,67,62,82,87,96,128,132,127,126,129,116,131,140,139,158,153,140,147,146,133,142,158,148,151,152,142,132,131,149,144,148,150,180,176,178,178,204,186,183,188,189,163,156,166,175,172,174,187,184,174,184,181,200,201,194,182,176,150,140,132,157,154,142,145,153,132,141,140,139,151,179,172,165,154,133,75,83,101,108,107,110,106,106,128,153,152,156,148,124,91,101,86,82,79,90,91,102,111,115,105
fingersSpread,3,4,82,93,88,94,91,87,72,110,118,120,114,132,106,98,102,114,100,99,100,102,119,126,124,125,126,108,101,111,117,113,119,125,121,120,121,112,109,129,140,141,146,143,128,111,114,105,131,133,141,187,210,223,226,221,204,192,162,197,201,234,235,262,256,283,257,255,235,225,187,166,153,141,109,104,97,97,113,116,115,123,136,115,118,123,117,120,125,130,130,132,113,109,103,99,89,97,97,97,122,123,119,116,114,96,108,111,108,104,98,93,91,98,99
fingersSpread,3,5,107,111,111,113,117,112,115,125,118,113,102,87,79,81,108,103,102,108,106,88,92,90,87,89,90,95,98,93,95,99,111,128,140,147,160,151,136,130,128,112,115,131,136,145,166,165,167,174,180,169,186,216,240,245,267,277,262,237,237,239,222,217,218,207,188,185,183,222,224,254,259,261,232,239,201,203,197,197,209,213,204,199,207,181,161,157,169,166,165,179,195,202,197,202,191,173,166,160,168,203,221,219,224,214,178,153,141,155,147,139,131,130,97,88,87,95,91,86,97
fingersSpread,3,6,98,102,95,82,88,86,89,87,92,97,99,96,100,112,103,99,103,102,91,104,99,91,95,91,79,83,79,86,85,87,89,94,91,95,116,116,116,112,130,118,115,113,110,92,73,71,74,87,108,136,142,145,159,154,160,189,195,201,226,216,211,224,221,196,197,195,197,218,221,230,218,205,188,199,184,194,225,224,213,232,245,224,214,218,206,187,192,192,194,188,182,183,199,194,205,216,217,207,206,190,182,184,166,164,177,164,127,121,105,90,89,101,120,124,116,117,106,89,91,88,81,77,69,78,97,100,100,108,110,94,88,96,91,78,77,84,88,93,95,101,106
fingersSpread,3,7,116,127,128,134,149,150,154,155,154,145,159,174,187,202,217,215,215,205,224,222,226,211,232,203,208,210,220,196,215,219,206,211,227,246,232,228,254,258,234,251,268,231,210,207,185,181,196,219,223,222,206,202,172,182,200,213,204,208,195,164,163,158,160,150,162,163,159,150,137,120,95,111,117,120,134,121,107,124,133,135,183,203,187,187,194,149,131,153,151,132,154,152,142,146,152,156
fingersSpread,3,8,167,162,133,132,135,116,109,165,177,198,223,233,201,188,165,140,117,112,150,145,146,167,185,162,165,158,139,123,158,169,170,176,172,158,148,147,176,193,177,181,205,187,173,173,175,145,144,150,145,151,169,167,160,174,168,151,136,135,126,116,126,140,158,166,172,194,187,177,187,229,207,210,220,216,167,199,198,193,206,209,192,200,200,176,184,185,175,158,149,145,134,120,125,127,108,93,96,84,90,97,99,125,159,176,175,202,195,173,160,162,125,114,111,117,108,109,117,119,105,103
fingersSpread,3,9,75,93,96,99,112,122,130,137,135,121,121,100,80,83,122,117,118,124,125,106,108,114,112,123,110,110,105,100,123,123,121,120,126,87,92,86,84,69,98,94,102,109,109,89,96,93,86,101,107,111,108,105,109,104,91,95,106,105,102,108,122,118,105,107,105,84,85,84,107,108,112,121,134,121,133,135,121,129,135,131,145,153,141,140,140,132,173,174,188,191,200,179,180,176,174,161,162,176,165,165,200,187,185,188,194,211,210,207,220,236,190,192,186,180,162,171,183,184,169,163,169,156,149,145,128,98,93,90,89,87,98,95,94,89,96,89,91,114,126,124,117,113,108,105,105,102,127,130,142,143,151,133,114,88,80,69,66,111,117,126,123,131,109
waveOut,3,0,80,84,70,77,91,92,86,91,91,77,67,69,83,76,76,86,87,76,80,92,97,95,89,106,111,105,129,143,170,184,208,215,265,314,314,92,97,328,335,341,368,394,403,412,426,414,383,364,349,327,276,281,311,314,312,329,279,261,266,303,292,331,333,363,336,353,336,343,312,324,377,370,381,379,377,305,331,349,370,370,398,387,426,516,705,792,889,932,1029,956,943,873,815,614,573,598,561,520,508,464,336,401,451,452,444,368,284,164,201,224,231,214,216,202,216,216,212,211,217,182,186,187,187,160,159,138,138,137,109
waveOut,3,1,84,79,74,89,75,72,72,78,83,82,83,85,80,61,57,62,76,82,80,85,94,125,127,131,137,139,115,124,148,180,182,204,207,222,224,237,260,278,258,263,324,317,330,338,340,292,284,289,299,301,297,302,289,299,283,307,287,310,337,360,346,370,356,313,299,348,372,426,436,457,663,866,849,858,908,802,681,780,814,764,731,643,543,470,511,540,546,497,497,493,440,409,410,433,349,412,395,404,367,361,244,211,177,173,150,138,156,142,140,131,119,91,104,102,118,112,126,117,112,94,114,108,111,133,149,137,139,145,134,114,110,105,131,126,150,155
waveOut,3,2,84,77,74,88,90,106,114,119,110,104,80,101,133,133,136,149,132,100,93,97,77,74,75,78,75,92,91,88,104,110,105,120,173,184,208,216,222,206,221,216,220,236,257,254,238,249,283,254,248,250,285,276,302,296,360,402,439,457,491,464,413,357,357,375,399,398,434,414,377,374,415,387,398,407,380,334,418,445,444,466,479,402,351,349,327,302,305,315,287,288,282,266,259,284,273,270,286,305,286,301,304,295,267,281,253,238,217,220,192,191,198,207,211,292,343,338,349,350,290,265,300,295,277,289,282,252,238,240,215,168,212,220,215,241,247,193,200,205,188,195,218,201,199,181,160,136
waveOut,3,3,154,175,180,140,133,139,150,153,143,145,137,126,118,117,127,163,150,146,147,149,130,140,166,170,206,197,207,201,221,199,220,223,246,251,250,243,290,289,276,286,287,225,213,233,250,241,253,251,252,229,257,261,269,254,254,340,355,349,347,351,255,233,237,250,238,261,252,236,230,242,213,214,221,210,209,258,253,263,291,321,303,310,297,279,224,215,214,223,292,302,303,314,317,247,275,253,238,218,212,145,165,151,177,231,256,242,236,217,155,126,120,132,130,156,182,180,168,182,178,149,158,161,158,196,236,238,264,264,237,206,200,164,154,171,174,171,170,206,197,176,171,176,179,176,178,200,198,154,134,149,134,141,165,166,150,136
waveOut,3,4,87,107,111,113,111,105,119,118,115,131,152,135,142,158,161,149,151,153,148,146,157,151,144,161,166,177,191,197,198,194,174,191,241,258,263,291,304,304,297,336,316,291,260,246,186,181,205,190,203,222,235,210,251,248,269,291,311,303,339,323,318,310,339,320,323,313,310,274,264,252,249,281,286,300,301,308,295,275,254,253,240,277,293,301,322,333,283,267,244,210,173,162,144,130,122,114,107,175,197,193,197,205,177,150,148,161,157,126,119,119,107,105,108,111,126,136,132,133,132,156,142,162,161,163,124,119,103,103,97,95,96,115
waveOut,3,5,127,153,136,154,156,162,149,148,131,127,131,119,113,112,137,104,105,111,135,133,137,170,170,157,145,168,146,156,153,171,160,172,168,173,175,182,219,212,221,214,228,183,188,190,224,231,249,274,287,276,294,294,295,296,297,270,284,310,303,306,314,354,350,381,381,400,363,347,369,414,410,412,411,374,322,314,317,307,303,304,282,263,274,273,273,272,265,258,263,277,315,332,336,320,302,269,299,298,342,362,363,319,335,293,279,280,298,287,272,264,243,231,207,201,210,206,177,155,166,119,117,116,120,92,89,125,150,185,232,240,239,235,227,191,192,179,176,158,152,161,156,155,150,156,137,132,119
waveOut,3,6,269,281,297,294,298,323,352,348,381,404,370,327,333,298,237,231,290,357,363,378,386,372,297,304,303,292,288,352,353,351,372,357,292,307,363,374,395,411,389,349,348,340,312,320,299,300,283,301,306,307,274,260,262,250,273,279,319,321,327,301,282,268,249,229,239,255,227,209,211,215,192,181,201,193,193,200,221,201,200,175,164,126,128,129,142,147,143,154,163,147,163,196,196,187,181,156,153,143,140,154,183,161,152,150,138,120,133,140,170,183,182,218,233,214,201,190,158,143,139
waveOut,3,7,171,156,176,174,181,167,179,162,154,134,152,156,165,164,180,168,151,165,216,211,206,213,204,164,194,207,205,188,176,137,131,124,137,154,184,177,187,202,205,203,243,261,269,276,282,272,274,273,290,314,322,391,403,410,386,388,320,311,293,338,336,341,337,334,313,329,318,338,356,344,326,326,316,337,317,331,326,319,271,280,250,255,246,242,272,264,262,242,266,270,273,316,328,329,300,342,337,387,367,371,338,323,261,314,366,386,370,419,428,388,405,420,423,387,401,363,357,310,300,304,308,338,326,332,302,285,245,259,268,294,347,360,375,368,350,339,321,292,289,336,305,299,285,283,220,229,232,238,224,213,224,208,219,246,278,248,241,257,235,207,226,235,211,203,190,155,177,174,174,167,172,142,114,128,159,178,205,222,219,207,199,180,150,143,138,145,149,159,165,156,139,122,116,101,102
waveOut,3,8,129,143,133,129,131,134,108,104,112,133,153,148,154,156,151,125,126,112,131,125,128,120,156,149,156,165,182,166,159,155,167,149,136,163,198,185,193,212,187,165,161,160,148,153,141,166,171,164,169,163,160,158,188,203,202,190,209,196,173,177,209,226,237,267,271,269,282,296,315,319,385,380,370,349,407,363,359,364,361,298,261,269,249,264,309,311,298,352,397,373,432,437,406,368,358,302,339,352,364,395,390,413,413,435,421,421,353,327,253,235,221,205,199,212,211,197,225,224,204,185,248,260,255,259,258,234,192,190,189,184,135,137,140,140,133,130,121,118,171,201,201,201,219,176,139,129,126,94,78,77,83,81,67,99,103,106,106,107,74,93
waveOut,3,9,131,133,131,110,126,128,127,131,132,113,123,131,129,126,141,129,177,178,181,173,181,128,119,105,104,89,94,104,113,131,127,124,125,135,115,125,136,167,163,177,174,183,232,258,257,258,275,260,240,251,250,239,216,230,236,255,286,276,267,268,268,308,309,319,307,312,263,298,331,352,352,340,303,290,302,298,288,301,268,254,256,286,275,306,336,345,343,397,415,394,424,445,400,368,399,384,359,357,357,390,361,365,381,375,287,291,270,280,295,292,284,287,253,281,331,328,349,350,303,228,224,167,166,181,200,189,172,153,128,92,98,93,100,95,89,97,98,101,136,154,148,155,212,193,179,177,181,122
waveIn,3,0,65,73,87,90,89,92,90,86,82,82,91,93,77,80,79,72,84,83,80,79,72,64,66,69,66,83,74,84,88,102,92,95,87,84,96,103,112,133,135,127,128,129,109,120,118,133,140,166,167,185,183,175,169,196,182,181,214,227,209,228,223,210,199,203,175,181,180,159,155,173,195,233,242,255,266,275,229,237,218,207,190,205,231,231,222,207,194,142,146,143,142,136,134,118,108,97,100,94,86,95,105,112,108,118,112,102,93,95,89,95,94,93,87,90,82,73,66,77,66,69,71,73,60,61,50,49
waveIn,3,1,48,48,50,46,46,48,48,45,48,51,47,47,47,45,43,51,52,53,56,60,57,61,67,69,67,76,71,78,78,79,71,77,71,71,70,80,93,101,119,122,121,117,117,124,169,179,195,197,200,171,189,191,193,212,219,216,232,245,220,213,205,171,148,234,263,277,278,293,242,215,207,215,197,197,212,206,203,207,190,198,205,201,195,241,227,209,230,270,246,241,247,235,204,195,219,225,221,225,237,224,214,209,183,158,149,136,129,124,110,95,99,88,88,88,74,69,65,61,66,62,54,58,58,51,56,58,57,86,96,94,93,96,72,56,53,55,49,50,70,74,72,69,70,52,49,59,58,54,61,58,54,56,60,54,55,51,50
waveIn,3,2,34,32,32,32,34,38,42,42,41,40,34,31,34,36,36,39,47,44,46,49,49,49,53,57,61,62,68,72,77,76,76,76,79,75,76,84,88,89,102,108,117,119,142,140,171,178,204,192,189,166,161,129,129,130,126,127,124,129,125,130,132,140,144,156,164,152,146,132,138,125,130,128,144,132,146,155,161,158,154,147,147,143,152,163,161,157,150,140,142,153,152,152,145,147,126,118,128,123,142,145,147,148,162,139,142,150,142,131,130,140,154,157,174,177,170,149,152,132,127,129,130,129,126,140,153,166,157,151,146,121,98,98,96,65,57,51,54,57,55,55,52,50,47,50,56,61,61,61,57,53,51,46,55,59,67,70,72,64,68,62,62,60,59,69,70,70,72,76,72,73,73,70,66,60,67,66,68,66,61,52,52,56,58,57,56,56,56
waveIn,3,3,44,43,37,40,40,40,43,48,52,57,57,56,56,49,43,44,45,41,46,49,48,47,47,39,41,41,46,51,52,45,51,46,44,44,46,41,43,47,54,61,61,62,61,59,66,70,85,85,85,82,85,70,79,93,102,102,106,105,105,92,97,95,102,106,111,109,112,109,107,106,112,109,109,103,104,96,101,97,95,90,95,93,91,94,97,94,102,101,95,93,93,81,98,102,120,148,150,143,151,142,125,123,124,120,125,118,129,141,136,131,128,118,100,105,105,122,124,135,128,143,134,147,141,147,143,143,127,128,119,104,88,83,63,55,46,43,37,45,91,98,108,124,209,220,220,220,215,145,109,104,94,85,69,63,67,79,82,80,94,113,109,110,109,92,65,68,72,75,77,83,87,92,94,94,91,82,72,66
waveIn,3,4
waveIn,3,5,65,63,61,66,73,77,80,80,73,69,69,68,67,69,73,72,73,98,93,88,86,94,72,76,82,80,75,70,73,106,120,121,122,119,96,89,86,96,100,96,87,88,81,78,78,81,87,89,94,99,104,104,122,126,126,123,147,135,143,144,154,169,173,197,215,214,192,189,171,181,174,174,188,178,151,159,172,173,167,158,161,150,138,151,161,147,141,130,119,110,105,104,103,91,89,88,81,78,78,72,68,58,57,70,64,69,83,115,115,114,113,103,75,74,79,96,120,130,127,124,115,97,84,81,82,74,70,68,67,71,78,75,76,81,78,75,76,68,63,61,65,65,72,79,92
waveIn,3,6,60,61,59,67,59,59,56,64,63,64,68,75,70,66,68,73,75,79,83,85,88,81,77,77,77,80,86,86,94,104,95,92,98,109,108,114,127,131,118,136,145,139,136,150,136,128,142,151,148,148,148,132,125,119,140,143,166,163,163,145,165,160,178,181,187,170,153,140,147,160,164,168,169,152,121,109,94,70,64,68,59,56,60,67,59,63,63,73,77,77,75,85,79,73,78,85,83,79,91,93,84,85,89,78,75,84,80,80,79,85,83,79,74,78,68,65,65,64,73,79,84,88,86,75,69,71,85,93,90,89,83,70
waveIn,3,7,88,86,94,85,88,96,101,91,97,93,83,80,101,101,99,95,97,79,78,89,106,110,116,115,117,112,123,118,122,114,111,95,117,134,135,133,134,140,119,130,142,143,123,144,144,142,144,143,146,150,149,154,156,152,143,145,135,136,136,150,146,150,162,159,139,135,144,138,120,121,117,98,79,85,103,106,113,111,120,106,106,102,98,86,82,77,68,76,70,70,67,70,87,254,387,420,420,477,464,422,412,422,371,344,274,261,272,287,249,258,247,266,255,259,255,256,205,184,181,186,188,188,218,238,225,228,227,189,184,202,195,200
waveIn,3,8,222,217,254,229,209,221,233,195,180,200,172,154,155,175,165,179,189,184,159,153,162,160,154,150,155,138,155,168,196,192,188,177,183,168,168,172,167,160,153,158,154,161,183,221,221,224,219,208,163,145,138,138,129,142,149,189,208,212,208,204,172,154,171,168,169,170,176,142,143,144,133,128,138,131,133,158,154,146,151,144,144,133,141,136,135,108,118,107,98,102,100,92,87,90,88,85,75,73,71,65,62,58,63,59,60,72,76,74,75,75,73,69,66,63,58,55,54,60,61,56,53,61,59,61,75,85,102,103,107,102,112,103,101,98,102,81,79,78,77,94,107,99,102,101,84,74,76,71,93
waveIn,3,9,94,100,87,88,88,92,85,82,90,94,86,83,80,70,71,73,81,104,120,121,119,111,87,62,53,55,60,64,65,73,81,81,77,76,75,63,63,62,66,68,76,74,90,96,98,104,118,120,121,118,121,123,121,114,122,115,106,106,116,133,142,148,141,145,143,140,147,158,168,192,351,544,702,836,861,867,829,734,587,763,817,766,783,777,655,537,548,492,499,368,306,229,178,130,118,108,99,91,87,62,63,59,53,56,61,59,62,62,69,82,88,88,88,94,90,92,100,101,89,100,102,96,98,102,82,68,83,82,81,89,103,93,92,95,92
doubleTap,3,0,99,112,110,130,124,123,112,133,116,103,110,110,115,116,112,102,120,106,108,110,112,91,74,67,95,140,182,184,190,190,170,135,142,142,179,248,249,257,266,254,201,207,198,193,173,144,131,134,125,116,121,112,117,112,112,109,106,88,81,76,74,71,80,79,80,81,89,81,82,81,78,73,73,84,92,95,96,103,92,84,83,88,80,80,84,88,93,90,87,83,78,75,77,84,87,87,82,72,69,68,79
doubleTap,3,1,156,157,159,188,153,146,143,149,115,113,111,116,114,125,122,120,117,119,112,106,104,101,124,208,228,233,246,238,159,135,155,163,195,222,243,237,220,200,190,164,155,166,159,139,138,133,112,99,88,74,69,84,78,82,81,92,97,101,99,99,83,77,85,93,90,106,103,93,87,92,76,71,74,74,75,79,92,90,94,95,92,93,91,82,104,107,93,92,92,71,80,78,90,96,92,82,84
doubleTap,3,2,78,73,64,65,65,59,52,54,71,78,76,79,93,86,78,79,98,93,89,91,92,74,71,71,79,76,76,83,96,156,188,197,235,234,204,186,212,173,169,190,209,267,284,288,272,259,195,173,184,196,193,159,154,135,113,98,91,76,76,71,73,77,82,76,87,87,85,81,79,80,82,83,80,77,63,58,61,65,86,87,91,93,101,87,85,83,77,70,74,72,70,79,74,71,72,83,77,83,78,77,66,60,67,77,100,103,114,106,103,114,152,149,157,158,197,175,181,207,236,235,234,232,223,226,180,179,179,159,112,111,102,90,82,73,77,88,90,85,81,76,86,101,100,100,113,111,104,107,109,104,105,98,104,111,109,103,105,108,100,92,84,85,100,100,99,95,98,78,79,85,92,86,82,80,80
doubleTap,3,3,61,60,64,68,73,70,68,66,83,87,88,96,101,86,74,77,72,70,67,72,80,79,74,75,73,76,79,87,108,118,112,107,109,129,152,168,206,206,202,180,182,155,159,161,227,256,260,273,260,235,199,192,173,179,152,141,156,164,164,150,144,131,114,103,113,125,106,95,103,91,75,70,72,60,62,81,83,102,114,113,102,110,95,79,80,82,75,70,76,80,79,85,87,87,91
doubleTap,3,4,56,60,64,87,90,90,89,89,64,107,184,203,213,224,211,155,179,183,176,189,247,274,297,303,308,290,244,208,228,213,171,163,159,108,88,83,78,69,69,75,86,98,97,93,94,114,100,99,102,105,73,67,70,74,80,89,95,89,86,87,83,81,81,86,78
doubleTap,3,5,68,76,76,68,73,64,65,79,77,127,217,369,404,433,425,398,293,250,215,276,334,355,363,372,367,364,323,314,307,263,171,161,155,124,113,107,107,121,131,126,129,160,147,136,131,128,92,77,78,77,77,76,75,71,81,80,69,77,86,85,85,84,89,93,88,84,90,98,95,95,101,101,81,95,101
doubleTap,3,6,55,58,55,50,52,53,57,60,58,58,62,59,63,71,78,82,83,84,145,256,278,323,356,345,337,343,313,283,325,369,438,452,478,461,401,316,300,257,239,201,174,145,132,98,99,94,103,95,104,101,103,91,92,92,87,84,84,85,77,77,82,77,71,82,78,77,90,87,75,77,73,81,141,234,253,257,254,229,175,156,160,194,204,187,239,235,210,210,204,142,144,139,140,136,122,114,116,93,98,91,86,90,97,85,99,106,117,110,112,106,108,102,105,108,109,103,122,124,121,119,119,97,86,85,98,103,92,94,100,113,105,116,133,144,141,170,169,163,150,142,117,118,115,140,162,168,190,188,177,157,156,122,127,125,121,104,122,115,102,95,95,75,73,73,77,70,65,65,75,68,77,89,100,91,92,86,95,89,90,89,91,71,72,71,75,79,85,85,98,106,108,97,94,83,76,95,97,98,97,95,81,88,89,107,118,107,111,164,198,203,237,244,228,222,243,218,217,226,246,269,271,263,264,240,191,186,202,185,161,144,145,120,102,96,97,88,91,81,79,74,69
doubleTap,3,7,71,68,71,72,77,88,99,98,99,90,90,76,76,81,78,77,100,106,103,128,154,177,232,247,238,259,246,208,197,233,204,212,221,225,205,204,200,176,169,145,121,95,86,70,66,71,73,77,80,82,83,87,86,91,93,85,79,90,91,100,99,96,82,76,56,61,70,72,73,76,79,74,73,76,73,81,91,94,94,103
doubleTap,3,8,65,76,84,88,79,80,69,72,73,78,77,78,73,78,86,87,90,91,161,215,259,279,315,309,313,318,342,314,302,275,307,300,302,290,278,202,163,155,150,150,125,83,69,77,81,83,90,101,90,77,76,89,88,95,97,103,98,90,83,87,79,62,59,58,49,62,74,80,88,91,85,75,69,84,85,84,84,89,69,69,75,99,111,113,111,147
doubleTap,3,9,57,65,62,62,59,65,53,60,64,69,65,79,78,76,78,79,73,76,76,86,95,94,95,95,79,86,236,273,280,282,280,204,207,206,212,220,212,214,219,222,220,220,173,155,162,164,148,138,139,120,96,77,78,83,75,80,78,71,65,62,60,62,72,73,70,78,82,96,98,103,113,119,104,99,95,83,69,66,66,73,68,69,69,81,78,72,71,73
fist,4,0,198,209,203,239,214,211,216,262,244,264,256,271,278,260,252,250,230,173,179,193,209,204,198,217,188,158,213,217,197,198,245,210,206,211,228,185,196,193,189,163,188,185,193,189,188,153,217,221,227,234,234,142,177,197,245,256,272,253,267,236,230,227,212,200,204,220,200,253,262,304,323,384,408,450,441,445,429,422,405,405,417,403,435,441,465,522,567,522,544,603,544,518,532,518,414,400,354,334,250,243,229,249,234,240,211,256,273,296,292,305,277,236,196,188,178,186,232,232,234,232,281,257,282,282,280,240,232,196,189,223,207,217,222,226,213
fist,4,1,153,154,162,140,136,139,142,153,183,199,226,253,244,201,203,192,161,167,176,158,141,129,119,175,192,192,217,222,214,236,282,274,288,279,283,240,286,301,331,357,389,413,412,404,374,406,366,388,435,487,490,484,463,495,478,447,500,519,505,480,451,407,364,252,218,245,190,190,178,168,132,149,159,160,168,172,198,208,198,190,188,170,150,165,182,198,211,209,197,200,219
fist,4,2,233,238,241,276,261,243,243,269,253,234,255,281,312,290,314,331,344,308,326,337,338,318,405,423,403,377,369,331,311,303,299,331,279,263,256,301,257,301,312,325,285,295,237,234,212,206,195,197,168,180,189,192,287,292,286,287,291,283,310,308,310,330,284,281,278,269,266,245,214,210,219,234,250,250,246,238,284,259,266,269,265,170,267,251,250,259,258,166,169,259,278,312,339,354,297,291,263,285,277,292,315,395,606,654,676,699,693,628,643,622,613,657,589,574,657,652,581,533,493,401,377,373,355,350,306,274,254,247,207,219,227,215,253,262,263,254,242,212,185,160,163,217,229,233,240,230,188,156,168,194,189,183,170,145,122,132,159,183,193
fist,4,3,203,209,215,215,214,210,268,251,250,246,242,208,201,205,206,217,224,247,241,244,255,232,234,257,266,265,270,265,249,268,251,229,233,221,178,191,187,165,171,192,185,266,318,350,375,421,404,377,396,384,345,315,314,364,379,428,465,504,465,465,431,544,568,585,696,838,828,885,991,951,952,1011,1017,984,974,952,888,816,904,1035,1049,1020,1012,1032,896,779,782,830,648,605,590,591,511,421,415,399,296,228,157,137,145,127,120,108,145,157,153,153,180,163,135,183,203,190,195,196,153,145,142,128,172,241,263,263,268
fist,4,4,175,162,161,163,180,188,211,209,192,182,141,99,95,119,139,186,192,193,202,263,234,229,226,211,115,116,117,124,145,152,180,191,202,202,202,263,234,217,219,245,371,389,414,467,515,441,465,469,420,350,371,471,484,510,528,556,503,479,454,468,516,516,529,631,628,567,544,553,516,516,516,541,561,526,505,567,654,695,669,753,824,757,686,698,643,484,449,468,580,563,550,519,496,302,221,180,171,110,112,124,146,145,150,138,136,116,105,100,108,100,90,91,145,145,153,161,162,128,184,192,235,240,291,368,374,427
fist,4,5,107,130,147,165,200,193,177,165,152,103,104,110,135,150,173,173,184,179,183,171,168,162,165,145,136,159,176,217,260,266,264,295,262,366,399,447,425,432,366,334,283,293,404,416,423,469,563,503,480,480,494,606,618,642,690,836,701,703,900,1064,1145,1222,1304,1341,1219,1043,1024,1027,918,946,997,987,866,774,705,615,519,491,386,333,248,166,185,180,188,196,202,184,221,222,211,200,196,150,193,209,225,232,236,203,201,284,313,374,388,401,345,316
fist,4,6,152,146,169,204,190,216,216,191,162,171,137,155,160,153,143,128,114,98,97,129,130,125,137,150,133,169,187,202,212,291,291,285,278,333,297,391,532,607,587,603,558,473,387,404,396,435,402,554,556,560,539,586,461,555,539,524,486,572,495,492,517,579,480,433,420,385,236,207,207,205,177,160,152,138,129,155,170,195,201,228,217,216,205,211,187,198,197,195,199,223,212,225,233,297,281,298,285,282,250,245,242,237,271,248
fist,4,7,169,155,154,125,136,135,137,146,157,165,162,173,162,157,129,129,132,159,168,170,200,208,194,181,194,157,132,184,208,202,225,280,304,322,347,383,373,358,377,437,475,518,563,552,621,617,655,624,685,615,573,665,735,677,694,841,719,651,675,706,643,637,633,628,537,380,386,361,300,275,290,245,229,226,243,213,211,209,206,179,179,193,195,195,188,220,246,251,245,304,286,249,237,241,205,234,218,230
fist,4,8,216,197,155,166,164,158,229,239,234,235,232,166,161,159,165,174,156,151,189,184,169,183,180,160,156,161,140,160,164,181,192,209,186,173,169,171,160,157,147,138,161,189,203,204,197,211,234,237,285,336,366,363,382,357,353,357,362,353,414,416,384,445,476,477,541,594,620,675,668,621,627,586,530,503,578,578,543,499,498,369,272,272,281,252,251,209,180,143,134,131,147,184,188,187,187,192,144,143,191,190,175,215,217,188,188,200,218,224,216,218
fist,4,9,134,165,174,176,182,158,164,178,193,196,197,171,162,203,205,207,204,200,143,139,133,154,145,143,166,183,164,159,158,148,130,136,174,248,260,266,288,282,255,291,303,298,325,304,281,278,320,323,385,381,381,361,362,342,393,404,415,419,407,359,396,513,503,482,578,594,487,491,660,595,579,568,554,342,297,200,182,154,123,78,80,67,68,203,215,228,234,277,267,290,284,284,245,249,214,231,240,257,198,218,198,192,201,191,175,207,203,197
fingersSpread,4,0,138,147,168,172,159,174,178,159,175,181,190,189,192,176,175,141,115,102,96,97,92,125,123,122,148,157,150,160,158,136,137,133,132,129,138,133,124,121,139,153,157,164,181,178,206,233,233,225,238,201,169,166,155,199,210,211,223,226,206,195,195,231,239,219,210,217,167,191,231,242,237,280,266,219,224,265,227,233,267,262,221,232,221,206,197,187,156,138,121,132,149,145,230,232
fingersSpread,4,1,123,140,152,165,157,142,126,130,157,167,172,181,167,135,126,143,140,166,188,190,185,199,185,160,164,160,177,169,176,186,189,211,306,337,343,345,342,278,286,295,319,309,301,282,271,259,244,270,246,229,214,238,201,197,233,238,227,230,229,189,172,150,156,154,165,159,163,158,164,224,267,266,276,284,238,220,254,256,253,253,244,209,182,179,200,207,199,196,203,189,207,218,272,271,256,223,219,169,191,196,201,238
fingersSpread,4,2,141,120,114,125,122,119,115,127,143,168,167,167,160,145,123,151,153,155,163,163,147,139,159,155,164,152,158,162,167,167,164,158,152,132,105,116,149,143,154,155,153,121,110,100,103,97,105,109,130,153,177,175,183,167,160,157,163,161,163,273,266,286,289,295,215,225,222,220,231,217,243,232,229,219,224,186,214,277,282,314,346,346,302,302,258,206,155,150,168,181,196,207,205,176,157,151,153,145,138,147,168,205,253,267,277,281,249,216,207,235,226,253,247,236,197,187,152,146,187,221,263,289,295,280,333,333,311
fingersSpread,4,3,145,154,138,142,161,157,157,177,178,157,162,151,189,211,231,227,230,186,141,138,152,159,154,169,169,165,161,158,139,124,119,130,199,231,229,223,220,171,147,172,186,182,172,177,171,176,172,175,158,131,124,138,145,156,206,199,197,190,182,170,194,215,238,244,255,252,254,259,263,234,225,204,194,195,193,197,237,220,220,214,209,169,170,157,161,144,131,146,178,182,186,198,267,292,294,302,334,280,240,237,235,178,162,145,129,212,247,258,264,272,220,212,199,193,201,207,169,230,274,260,298,316
fingersSpread,4,4,180,170,173,168,192,210,220,211,212,165,130,133,138,144,157,158,142,148,134,110,93,95,83,83,133,152,151,148,156,164,171,195,195,191,209,216,198,198,249,238,222,225,228,204,190,255,254,262,267,268,238,266,297,279,273,259,279,248,278,285,285,250,250,273,264,263,265,254,225,289,306,312,321,305,246,233,317,326,321,334,336,250,258,264,244,218,230,211,199,195,208,174,146,128,122,95,80,147,146,149,157,159,104,116,160,209,220,240,242,211
fingersSpread,4,5,131,152,165,155,166,171,142,143,160,174,181,181,184,207,191,187,204,212,190,188,183,190,197,188,200,214,218,194,191,187,162,156,208,214,207,209,191,121,132,143,142,142,159,139,128,134,134,127,128,141,134,133,131,136,129,127,137,152,158,171,197,215,200,187,198,187,187,205,217,206,203,205,189,178,168,157,141,142,149,155,175,160,156,150,159,149,165,168,165,222,218,209,232,253,247,250,243,233,230,188,206,215,207,188,227,225,224,225,232,205,195,239,290,300,297,298,277,240,237,269
fingersSpread,4,6,161,172,151,170,168,213,215,211,193,187,122,162,182,208,207,253,227,225,203,213,188,194,240,245,241,213,205,152,150,175,207,206,191,212,207,176,190,225,204,195,197,200,164,160,145,149,152,155,196,210,239,238,236,214,252,242,237,243,250,209,209,213,221,205,212,218,214,195,204,186,177,199,208,222,260,253,271,262,255,221,220,162,223,215,242,252,267,237,237,219,199,179,222,256,256,283,287,242,226,216,196,199,214,210,211,200,213,223,206,217,208,201,166,180,160,167,162,182,160,189,199,200,212,224,207,206,209,182,192,211,230,235,241,225,200
fingersSpread,4,7,199,205,183,168,192,246,263,270,270,259,227,199,194,192,170,159,172,185,221,228,211,202,208,192,184,198,191,173,189,183,169,192,192,147,150,146,125,131,141,138,142,155,148,149,161,161,161,158,150,151,191,183,198,243,260,259,262,269,247,261,246,251,238,232,196,185,174,181,164,161,177,183,199,217,244,244,252,248,275,287,293,279,276,259,225,225,221,210,204,224,222,276,278,261,282,275,223,220,263,234,262,277,273,309,309,286
fingersSpread,4,8,156,186,213,231,232,229,200,198,182,175,177,173,213,206,216,214,231,168,171,181,195,170,169,160,155,171,176,176,173,173,159,173,199,194,174,183,186,175,181,201,190,245,257,264,259,250,202,190,177,166,175,159,152,203,216,207,203,190,142,209,226,221,224,214,152,130,135,133,153,135,167,186,199,201,209,207,202,186,194,203,189,180,189,161,143,138,150,204,228,239,243,266,278,261,259,277,265,229,236,232,224,202,211,257,252,251,256,262,226,226,207,206,190,234,251,257,249,233,212,194,183,185,218,183,236,247,270,266,276,243,259,285,290,275,261,251,218,185
fingersSpread,4,9,202,190,212,237,207,233,256,244,211,220,190,147,162,178,168,173,196,172,155,147,189,186,220,221,221,206,199,177,232,248,221,219,212,176,152,157,154,166,162,173,173,167,152,130,112,116,112,114,118,151,163,186,189,187,180,195,204,207,212,222,204,180,168,168,145,136,221,232,236,234,243,181,256,259,257,250,246,174,184,226,262,274,281,298,319,317,307,312,282,220,290,300,286,286,288,193,187,204,199,201,243,270,257,256,253,238,204,194,202,277,262,270,272,269,247
waveOut,4,0,173,201,197,188,155,143,105,150,173,172,173,175,158,138,177,182,182,164,154,130,118,111,117,124,121,128,137,184,192,201,201,182,182,229,244,246,288,313,306,312,309,358,358,387,394,401,354,340,317,347,340,312,328,328,293,328,322,302,314,306,242,254,255,215,232,242,235,218,224,242,233,259,271,257,202,192,144,255,215,232,115,161,155,200,199,198,174,220,189,196,197,217,185,189,198,211,183,199
waveOut,4,1,166,199,202,176,172,197,163,158,150,146,113,106,116,145,140,132,146,129,103,111,128,115,120,121,117,139,165,214,225,261,281,314,292,322,342,382,453,482,589,660,676,686,744,735,701,802,839,811,779,817,749,763,784,780,737,701,596,540,539,511,555,561,539,482,447,340,275,267,268,258,203,231,230,244,262,290,257,249,261,301,298,291,290,250,221,237,247,262,296,267,241,228,235,206,212
waveOut,4,2,123,128,140,146,158,166,184,170,161,152,138,113,117,128,134,160,175,177,163,161,152,134,138,140,123,165,176,172,171,190,140,121,119,194,194,194,206,218,173,187,190,185,224,330,321,327,342,340,267,306,340,387,403,424,452,453,490,480,485,499,591,542,534,522,488,355,351,362,337,318,331,311,295,306,323,333,334,321,288,252,199,183,175,172,132,100,148,152,152,157,171,137,146,157,187,192,194,199,206,189,217,235,238,258,271,244,246,261,244,226,325,320,304,324,324,345,380,383,391,413,345,289
waveOut,4,3,136,123,140,170,171,171,168,176,230,233,232,252,247,197,189,189,212,226,207,215,216,193,214,226,229,237,233,185,167,177,185,172,180,197,176,166,157,132,113,130,132,165,193,187,172,192,168,190,221,248,247,284,271,269,280,404,459,597,647,685,730,726,678,673,655,662,759,739,827,835,779,724,780,713,738,710,643,525,464,375,376,378,401,351,335,288,263,215,201,177,159,138,135,154,172,186,197,229,228,218,211,198,161,202,223,228,264,288,268,246,236,196,181,155,160,176,183,177,216,220,222,228,233
waveOut,4,4,195,188,172,174,177,201,218,217,229,234,220,191,182,171,140,191,201,210,206,204,170,196,210,216,215,230,258,294,302,331,327,282,238,247,241,287,299,322,319,373,340,367,446,472,461,536,689,809,908,949,956,905,876,815,796,764,702,588,558,506,548,548,493,433,405,301,265,281,291,308,273,274,252,272,260,303,332,326,286,273,227,183,213,237,241,260,250,250,268,260,258,258,244,211,228,219,259,304,310,294,282,230,153,152,176,211
waveOut,4,5,169,191,192,201,195,191,205,212,207,222,215,248,231,229,224,240,153,134,142,128,94,130,148,162,161,174,157,174,169,247,256,266,267,302,331,445,460,492,505,558,508,558,650,765,862,894,1010,1039,984,892,895,774,668,705,731,709,660,754,823,777,754,754,623,395,321,287,274,292,268,274,275,257,242,271,269,246,247,240,241,237,248,241,220,178,173,205,211,238,247,251,216,191,157,131,150,181,189,194,265,319,320,320,313,256,182,144,158
waveOut,4,6,252,254,243,232,203,194,199,197,223,225,216,219,239,182,157,162,155,137,169,175,178,194,191,169,176,173,168,184,189,189,186,211,198,178,202,214,187,212,219,201,186,194,210,229,238,285,294,287,269,256,222,362,371,398,409,425,335,329,362,414,416,390,429,399,450,469,498,537,628,660,695,715,667,582,498,424,354,385,373,423,466,490,462,477,420,375,380,381,346,322,317,295,284,298,275,277,259,240,223,235,198,182,184,182,148,145,147,176,198,208,202,215,195,187,221,231,235,251,257,226,226,220,191,191,198,182,183,220,247,247,252,242,226,230,244,261,267,254,211,208,195,253,251,248,233,234,172,183,195,190,198,188
waveOut,4,7,198,200,167,176,204,193,209,205,203,179,177,177,190,178,167,159,168,164,188,199,247,270,278,273,281,244,198,165,145,108,117,105,107,108,134,136,177,189,193,183,173,141,147,149,173,197,221,219,230,235,306,325,328,348,375,321,410,484,490,488,648,622,738,762,876,916,912,835,864,775,729,787,843,839,821,713,673,562,471,456,450,358,313,299,284,245,230,185,172,119,102,112,100,97,93,102,110,131,133,130,117,111,92,87,116,114,113,121,123,110,120,125,122,142,180,183,203,217,213,259,269,283,274,277,215,228,231
waveOut,4,8,129,123,126,127,120,117,130,135,136,158,164,164,170,167,162,164,162,168,179,167,143,134,127,123,120,158,179,184,176,178,162,142,134,144,169,165,164,186,184,158,228,362,401,484,539,664,674,802,821,858,775,805,663,676,656,739,695,712,718,744,690,686,671,582,497,433,401,394,412,384,379,328,305,251,237,266,249,239,229,211,104,94,92,85,69,60,60,72,73,84,91,88,83,86,99,102,120,132,137,152,166,165,162,185,163,151,180,194,191,199,194,189
waveOut,4,9,161,168,165,157,147,142,124,144,160,175,173,165,142,142,124,118,121,136,126,133,134,142,126,117,101,94,90,89,90,90,94,93,102,127,144,161,156,183,176,190,184,201,240,268,265,277,270,312,299,338,492,635,732,795,864,836,746,682,844,801,816,852,851,685,713,681,650,604,569,491,429,397,392,340,314,316,302,274,291,312,325,321,304,252,187,100,74,69,96,97,102,115,111,86,107,169,181,182,187,193,179,161,166,222,226,213,215,232,201,186,182,198,184,221,220,224,207,231,179,179,159,192,183,234,235,260
waveIn,4,0,158,153,151,145,146,145,151,151,153,136,141,136,141,152,116,130,148,144,153,157,153,155,169,152,154,146,132,130,137,131,135,125,105,89,90,70,73,73,71,74,83,117,154,159,161,165,162,140,140,90,70,184,221,259,283,317,308,289,265,249,241,246,301,306,288,272,259,183,151,173,151,130,139,161,143,131,154,174,195,207,230,228,239,221,211,194,287,266,265,275,278,189,201,204,198,234,220,229,258,262,237,241,230,237,243,234,228,222,212,189
waveIn,4,1,175,225,221,229,211,211,176,166,175,186,177,158,157,137,118,123,171,188,182,185,220,194,175,179,176,112,97,92,92,90,85,99,122,117,143,183,242,253,276,289,281,239,230,209,190,215,223,253,272,290,271,282,258,256,260,284,260,253,233,193,185,208,223,241,239,204,172,155,121,115,112,118,106,108,109,123,202,216,216,220,220,164,161,161,161,149,139,130,125,205,226,220,213,256,207,181,203,213,186,173,185,170,158,130,136,131
waveIn,4,2,284,294,317,324,344,312,292,267,254,224,153,135,148,153,163,193,194,216,232,226,203,216,181,157,162,175,163,173,184,180,182,186,206,194,199,189,188,182,201,203,194,180,163,140,141,136,170,161,165,149,170,147,141,143,148,150,153,153,158,187,192,193,193,182,159,137,126,130,133,123,117,125,114,112,119,128,112,129,151,169,179,197,221,296,330,360,424,557,529,524,517,466,303,283,263,254,241,217,248,293,281,284,270,237,166,192,189,194,209,224,215,213,210,202,190,225,255,260,260,299,264,246,243,238,191,185,168,190,213,226,213,215,215,214,163
waveIn,4,3,266,234,227,178,159,169,173,155,220,223,213,205,218,188,205,236,237,239,214,226,190,226,216,212,201,202,145,147,160,148,207,227,228,233,229,218,200,192,179,180,133,161,215,231,232,269,279,309,296,295,268,242,151,210,204,194,188,184,208,239,238,250,254,192,164,178,166,160,159,150,180,182,180,173,163,142,168,186,223,300,314,340,352,339,279,304,257,256,250,274,217,222,189,250,229,235,235,243,193,296,305,306,320,321,262,278,276,301,314,320,303,308,268,285,264,259,296,300,264,237
waveIn,4,4,217,247,239,209,221,205,199,216,237,224,241,212,193,165,213,201,198,199,293,287,292,291,317,266,252,261,265,234,190,180,163,179,170,171,171,168,178,188,193,177,177,179,175,170,168,187,158,172,210,240,249,266,260,256,266,245,229,228,220,201,237,257,272,267,266,264,254,237,228,204,150,194,198,201,205,247,221,284,297,304,287,288,277,346,348,348,339,292,209,207,207,231,249,248,246,262,240,282,275,310,300,327,301,320,287
waveIn,4,5,218,210,186,195,219,203,199,196,212,219,218,226,229,216,187,260,266,277,276,283,214,215,232,253,263,266,247,229,221,205,183,188,195,174,183,193,219,224,219,220,218,205,212,237,251,261,247,212,185,135,104,94,98,102,102,100,153,167,186,250,272,256,256,255,193,169,181,183,195,195,191,175,160,126,128,114,103,98,80,84,130,131,130,131,120,103,184,229,290,297,306,274,252,207,200,181,208,209,193,201,207,196,200,243,358,361,352,347,338,221,227,237,241,237,250,256,246
waveIn,4,6,189,284,293,296,298,304,249,213,233,232,247,219,282,237,279,287,290,271,305,269,246,237,258,232,243,247,286,264,252,234,229,271,259,268,271,288,214,193,220,216,203,212,228,190,188,170,168,141,180,257,268,277,310,304,253,251,225,166,129,129,164,237,240,242,243,213,132,125,149,161,192,206,212,256,263,269,265,292,309,340,323,321,302,279,223,271,278,269,249,279,248,254,257,311,311,319,357,358,336,347,380,357,384,369,367,337,350,386,382,352,347,322,237,213,207,293,290,284,309,343,259,243,283,262,242,231,246,227,232
waveIn,4,7,302,299,339,291,273,258,268,200,205,225,208,194,219,252,231,238,238,183,241,254,247,247,247,122,100,102,128,221,238,244,249,249,194,191,187,184,167,154,151,140,131,130,129,125,122,264,324,340,371,373,297,262,237,173,169,177,124,114,113,110,75,87,95,87,93,108,107,135,198,220,224,233,237,204,206,217,224,207,203,186,167,134,131,114,138,170,182,193,228,292,289,291,289,282,222,232,260,257,253,246,250,214,309,295,305,280,291,237,256,247,266,260,227,216,227,206,215,232,255,232,274,273,257,252,261,231
waveIn,4,8,213,227,181,176,183,191,186,175,217,225,233,223,207,212,209,189,207,259,270,268,279,275,255,200,203,195,189,207,210,232,232,246,218,237,207,199,189,222,205,204,212,224,277,288,285,282,297,230,213,207,241,210,184,181,194,162,154,161,172,157,134,188,259,276,279,294,296,238,210,326,346,328,339,344,250,207,185,146,131,140,165,173,178,191,181,153,154,170,244,260,277,288,299,249,230,220,210,234,271,313,352,373,348,316,276,226,175,173,171,149,133,166,185,273,292,290,279,266,178,154,173,190,323,423,422,421,435,372,268,274,271,246,224,318,335,342,403,420
waveIn,4,9,257,263,264,284,314,274,263,265,273,260,226,227,257,227,198,201,226,216,247,265,305,357,346,336,323,340,309,300,286,289,249,191,194,190,224,197,220,219,218,175,147,103,94,101,108,225,293,346,365,399,451,450,475,472,477,404,387,331,339,336,330,301,299,287,279,261,284,265,265,247,267,244,236,228,239,295,304,336,344,326,264,295,293,290,320,327,287,265,268,214,211,231,252,280,290,287,274,274,232,233,225,222,289,302,296,294,307
doubleTap,4,0,205,210,203,213,212,225,224,230,187,216,202,215,206,211,143,160,157,188,190,233,236,303,409,420,397,403,353,229,210,265,266,266,247,267,240,323,332,387,410,394,341,340,291,243,281,258,251,245,232,184,194,199,189,212,237,219,205,200,193,195,222,228,232,232,209,184,195,207,197,204,206,212,191,198,188,195,165,169,179,200,218,220,220,218,196,183,186,226,216,246,233,235,201,268,251,258,249,243,169,185
doubleTap,4,1,260,289,277,267,285,293,268,281,268,267,265,285,281,287,216,254,245,248,247,247,197,213,194,293,310,313,304,299,246,232,225,245,262,240,238,281,289,336,475,518,506,491,459,307,269,300,295,282,299,326,280,272,271,243,173,280,287,292,295,283,233,236,231,220,235,176,186,197,264,257,254,234,275,227,212,211,211,125,152,193,225,241,248,223,204,185,184,173,169,169,193
doubleTap,4,2,205,199,195,187,215,219,210,220,229,204,182,199,211,210,225,230,231,251,247,255,249,259,242,255,244,248,232,200,190,193,199,248,299,323,343,408,423,401,383,378,326,253,246,254,277,302,364,365,369,380,383,327,361,472,454,417,458,434,324,293,282,213,202,148,148,168,151,160,184,227,229,243,228,221,203,214,238,253,244,218,190,177,206,214,217,254,237,240,233,232,239,301,276,296,298,282,208,225,206,210,195,215,205,236,258,258,250,270,276,258
doubleTap,4,3,184,193,204,221,222,217,250,275,266,258,273,272,244,245,262,281,277,277,274,274,240,261,266,265,249,251,268,276,302,300,279,246,245,211,306,338,332,420,490,441,449,451,380,320,361,355,349,339,334,323,359,369,354,337,309,234,230,306,312,301,330,326,281,275,287,255,275,260,296,297,283,286,284,253,276,324,291,288,301,294,267,257,255,254,231,207,245,243,220,213,211,263,305,300,302,306,270,280,289,312,314,311,282,267,258,274
doubleTap,4,4,231,245,227,221,214,221,214,213,175,183,187,186,182,198,185,169,211,295,317,326,359,337,286,256,256,201,190,188,192,274,317,370,397,455,428,398,353,435,380,356,382,437,540,619,630,614,575,409,294,303,312,340,311,285,244,227,199,187,286,309,323,320,331,255,240,224,228,261,254,227,199,187,254,279,322,349,300,326,301,259,311,317,280,297,308,240,277,299,289,284,262,333,337,337,341,346,246,220,310,316,318,312,314,244,271,284,283,286,279,275,253
doubleTap,4,5,220,230,226,236,201,205,188,217,220,231,234,238,209,212,209,215,208,208,345,354,349,355,351,196,184,215,266,311,319,309,365,400,381,404,419,368,310,298,296,312,321,313,319,301,264,273,293,293,292,330,315,295,288,270,260,299,300,308,302,289,227,198,192,233,250,243,259,266,274,242,241,257,251,250,265,283,276,273,240,233,212,198,194,233,231,227,249,255,216,225,231,207,217,228,238,304,308,311,355
doubleTap,4,6,258,285,257,256,251,276,280,259,254,241,228,242,236,238,239,240,220,272,269,263,250,245,199,192,229,236,281,276,276,264,288,242,244,252,264,280,290,304,302,292,294,341,350,370,387,360,338,305,295,293,286,259,271,280,281,304,284,315,371,359,347,379,365,339,348,340,335,316,261,217,236,262,292,288,348,341,295,265,264,220,235,258,259,262,320,333,339,361,358,279,243,255,272,266,267,263,238,178,191,201,253,250,256,269,273,234,229,239,232,253,264,249,240,237,204,193,214,219
doubleTap,4,7,249,249,279,271,268,248,272,221,187,185,319,312,305,304,310,207,211,209,207,195,282,289,284,288,311,280,261,265,299,302,254,258,319,296,295,277,271,210,218,203,212,261,252,264,373,392,373,387,403,308,300,296,277,269,261,266,278,302,270,289,297,289,289,286,259,240,264,237,240,248,243,225,218,211,207,194,254,262,271,276,281,214,224,226,225,219,207,239,247,242,250,254,214,216,217,203,213,212,259,270,277,291,289,240,235,230,270,269,279,282,325,279,275,272,313,313
doubleTap,4,8,282,284,228,230,188,236,230,250,241,244,275,356,358,354,366,349,291,270,334,325,280,281,313,245,355,379,369,339,353,338,324,308,333,404,326,321,386,444,365,370,395,347,293,371,375,345,369,348,276,278,290,283,327,328,359,345,333,276,263,240,246,247,257,260,268,265,245,241,263,346,357,368,364,360,290,289,264,238,269,225,218,266,324,295,316,342,312,333,346,336,309,327,249,247,255,272,291,311,295,295,288,297,283,337,318,330,307
doubleTap,4,9,243,204,228,203,221,245,287,282,292,294,286,246,240,232,195,183,131,104,95,153,188,197,289,337,382,388,482,451,418,370,377,294,283,329,341,332,297,294,305,343,329,326,351,303,259,255,254,207,196,168,170,193,224,232,223,219,191,191,205,214,213,242,220,227,219,221,209,204,186,186,174,182,216,221,248,252,252,214,195,219,215,188,201,208,162,222,245,271,279,270,225,280,273,270,272,322,310,283