fist,1,0,-0.3125,0.1875,0.625,1.4375,0.1875,-0.5625,-0.8125,0.5,0.9375,0.1875,-0.5625,-0.3125,0.1875,0,-1.1875,-1.75,0.5,0.125,-0.25,-0.125,0.625,1,-1,-2,-1.125,0.5,0.1875,-0.9375,-0.125,1,0.6875,-1.125,-2.1875,-0.1875,0.625,0.1875,0.1875,-0.0625,0.0625,-0.25,0.75,0.75,0.625,-0.5625,-0.3125,1.625,-7.125,-9.75,18.3125,33.0625,20.3125,-2.875,-19.75,-27.8125,-34.5625,-44.875,13.875,46.375,13.5625,-20.125,-16.75,0.4375,1.4375,-3.0625,-3.8125,0.1875,0.5625,-0.1875,0.4375,0.0625,-1.75,-1.3125,3,3.75,-2.25,1.5,3.25,0.3125,-0.4375,-2.0625,1.5625,2.0625,0.5,-0.25,-0.6875,0.3125,0.25,0.1875,0.625,0.3125,-0.875,-0.1875,0.8125,0.625,-0.75,-1.5,-0.0625,-0.125,-0.75,0.6875,0.875,0.1875,-1.1875,-0.3125,1.375,0.4375,-1.75,-0.75,1.9375,2.125,1,4.8125,8.4375,34.3125,37.3125,14.1875,-84.9375,-44.3125,-34.6875,-89.3125,44.3125,42,41.875,-15.9375,-48.875,-14.125,19.375,7.125,-3.3125,-0.1875,-2.1875,-4.5625,4.1875,-0.75,-0.0625,1.8125,-2.125,,,,,,,,,,,,,,,,,,,,,,,,,,,,,,,,,,,,,,,,,,,,,,,,,,,,,,,,,,,,,,,,,,,,,,,,,,,,,,,,,,,,,,,,,,,,,,,,,,,,,,,,,
fist,1,1,1.625,1.0625,0.1875,-0.5,-0.375,-0.75,-0.3125,-0.4375,-0.8125,0.4375,0.4375,-0.375,-1.4375,-0.0625,0.5625,-0.9375,-0.75,0.1875,0,-0.4375,-0.5625,0.375,0.0625,-0.625,0,1.25,0.3125,-0.9375,-0.4375,1.375,0.4375,2.3125,3.25,2.75,9.1875,10.3125,-0.375,-8.25,-3.125,-1.5,0.9375,6.3125,10.5,12.75,-2.75,-9.125,-23.125,-90.5,28.875,36.4375,31.5,4.375,-34.75,-32.6875,8.8125,18.5,0.625,-5.6875,-0.25,3.125,2.1875,-1.5,-5.875,-3.8125,1.6875,2.3125,1.75,-0.25,0.1875,-2,-1.4375,1.75,1.625,-0.875,-0.25,1.4375,-0.5,-0.625,-1.9375,1.3125,2.5,0.125,-2.0625,-1.875,1.125,1.8125,0.25,-5.0625,-9.125,-5,6.5,11.5,7.3125,22.1875,9.625,5.875,-4,1,-2.9375,-1.6875,-2.75,-8.375,-9.5,2.0625,3.25,-0.875,-3.375,-0.875,5.25,8.875,7.75,2,-2.3125,-2.9375,-1.125,0.875,0.1875,-0.25,0.375,2,1.625,0.4375,-0.1875,0.1875,2.6875,1.4375,-0.5625,-1.3125,0.6875,0.9375,-0.4375,-2.6875,0.625,1.5,-0.9375,-1.25,0.1875,-1.75,0.5,4.4375,7.0625,8,30.5625,33.0625,-9.5,-51.8125,-30.25,-15.8125,-27.25,33.6875,26.5625,2.4375,-4.8125,-15.375,-12.25,3.4375,2.8125,-2.0625,7.3125,6.75,-2.125,-7.5,-2.5,0.25,-1.375,,,,,,,,,,,,,,,,,,,,,,,,,,,,,,,,,,,,,,,,,,,,,,,,,,,,,,,,,,,,,,,,,,,,,,,,,,,,,
fist,1,2,-0.75,-0.125,0.5625,-0.25,-2.0625,-1.5,-0.3125,-0.125,-1.125,-0.8125,0.6875,0.75,-0.875,-1.3125,-0.125,-0.9375,-0.4375,-0.6875,-0.6875,0.4375,-0.3125,-0.875,0.8125,-0.6875,-0.9375,-0.5625,1.25,-0.3125,-0.6875,0.125,0.625,0.5,-0.6875,1,-0.6875,-5.3125,-0.4375,2.3125,2.4375,-1.5625,-3.375,1.6875,2.5,16.0625,19.4375,8.0625,1.5,-10.25,-9.0625,-9.5,0.625,4.125,4.1875,-1.375,-6.1875,-3.8125,1.1875,-3.25,-1.8125,2.6875,3.6875,0.875,0.8125,1.4375,-0.5,1,2.4375,2.8125,1.5625,1.8125,4.1875,2.5625,-2.3125,0.3125,0.6875,0.5625,0.375,0.6875,-1.25,-1.1875,-0.5625,0.75,0,-0.5,2,0.375,0.1875,0.8125,0.25,-0.75,-1.625,-0.25,1,-1.5625,-1.1875,0,1.3125,-0.0625,-1.6875,-0.625,0.8125,1.0625,-0.5,-1.5,2.0625,0.625,0.6875,2.4375,3.75,2.3125,4.375,4.75,6.6875,4.75,-0.75,-11.625,-6.8125,7.3125,6.1875,8.1875,-0.75,-17.8125,-5.0625,11.1875,8.5625,-5.8125,-4,0.75,5.8125,1.875,-5.9375,-5.9375,3.1875,4.75,-0.4375,-7.4375,-5.75,2.5625,2.8125,-3.625,-6.5,-4.8125,1.8125,4.9375,-0.0625,-2.9375,0.875,3.5625,-0.75,,,,,,,,,,,,,,,,,,,,,,,,,,,,,,,,,,,,,,,,,,,,,,,,,,,,,,,,,,,,,,,,,,,,,,,,,,,,,,,,,,,,,,,,,,,,,
fist,1,3,-0.8125,-1.9375,0.4375,1.6875,-0.875,-3.5,-2.9375,-1.125,2.5,1.125,-4.25,-6.0625,-0.25,2.9375,2.3125,-0.0625,1.0625,2.9375,1.4375,15.0625,14.25,6.75,-14.6875,-10.8125,5.6875,18.3125,8.3125,-12.625,-15.9375,-3.1875,2.875,-3.375,-9.3125,0.625,5.625,4.75,1.5625,7.8125,4.4375,-0.0625,-2.4375,-2.875,-1.875,-3,-0.125,0.5625,-0.9375,0.625,1.4375,-2.5,-0.75,0.9375,2,-0.6875,0.125,0.9375,1.5625,0.625,2.25,1.75,0.375,1.8125,0.3125,-1.375,-0.0625,1.25,-0.4375,-0.25,0.5625,0.1875,-1.375,-0.25,1.125,-2,-1.6875,1.375,0.3125,-1.375,-2.25,0.1875,2.8125,0.1875,-0.3125,0.6875,1.375,1.625,6.5625,10.0625,2.25,-6.9375,-6.5625,1.625,5.875,5.1875,6,11.5625,-0.125,1.8125,-1.75,7.1875,-10.4375,-24.875,-1.5625,13.4375,10.375,0.6875,-6.25,-3.25,2,-2.625,-3.6875,3.5,2.625,-1.4375,-5.8125,-2.875,-0.125,-0.875,-2.1875,-3,-1.75,-2.25,-2.1875,-2.25,-1.3125,-1.0625,0.1875,-2.375,-4.125,0.9375,0,-1.5,,,,,,,,,,,,,,,,,,,,,,,,,,,,,,,,,,,,,,,,,,,,,,,,,,,,,,,,,,,,,,,,,,,,,,,,,,,,,,,,,,,,,,,,,,,,,,,,,,,,,,,,,,,,,,
fist,1,4,-1.5625,0.0625,-0.0625,-1,-2.0625,0.0625,0.6875,-2.1875,-2,-1.25,0.25,-0.125,-1.75,-3.125,-5.5625,-1.5,1.125,0.5625,-0.625,0.625,5.6875,7,5.8125,5.6875,2.375,2.1875,0.3125,3.75,1.9375,4.5,8.75,-2.75,-0.0625,0.8125,10.4375,8.625,0,-1.8125,-4.875,-6.1875,-6.125,-6.625,-1.3125,1.125,-2.4375,1.3125,1.75,-0.1875,-3.1875,-2.5625,-1.125,0.5625,-1.25,-0.75,-0.3125,0.25,0.0625,0.875,0.8125,-0.8125,-1.1875,0,0.5,-0.5625,0.375,2.25,0.375,-1.75,-1.25,-0.5,0.5625,0.25,-0.6875,-0.875,-0.375,0.5625,-0.875,-0.75,0.625,1,-1.0625,0.4375,-0.5625,-2.4375,-1.75,1,-0.3125,-1.5625,0.625,-0.25,-0.3125,0.4375,0.125,0.5625,0.1875,0.9375,1.4375,3.5,5.0625,6.0625,4.5625,0.1875,-1.8125,-0.75,6.6875,16.5,-4.5625,-15.375,-9.5625,-9.5625,-23.5,4.4375,9.25,6.8125,-7.125,-7.9375,-12.9375,-1.3125,2.75,-1.1875,-1.125,0.0625,2.75,0.0625,-5.5,-2.5625,-0.3125,2.6875,1.3125,-0.625,-1.5,-3.0625,,,,,,,,,,,,,,,,,,,,,,,,,,,,,,,,,,,,,,,,,,,,,,,,,,,,,,,,,,,,,,,,,,,,,,,,,,,,,,,,,,,,,,,,,,,,,,,,,,,,,,,,,,,,,,
fist,1,5,-2.25,-0.25,0,0.875,-1,-0.6875,0.9375,1.4375,-0.75,-2.6875,-0.1875,2.75,1.8125,-0.5625,-4.125,-2.6875,1.5625,2.3125,-0.375,-3.0625,-0.8125,1.125,2.375,0.1875,-1.6875,-1.5625,2.0625,1.8125,-1.75,-2.0625,-1.875,7.0625,6.4375,-1.4375,0.375,14,24.1875,35.625,16.875,-1.8125,-10.5625,-7.0625,5,7.25,-7.25,-8.5625,2.25,8.0625,0.5,-7.25,-4.625,-0.875,-1.5,-1.3125,-4.4375,-3.875,-2.5,-2.625,-1.4375,-2.625,0.5625,-1.1875,-2.25,-1.6875,0.5625,-0.875,-2.375,-0.4375,2,0.3125,-0.875,-1,-0.1875,-1.375,-0.8125,0.125,2.125,0.4375,-2.5,0.3125,-0.375,-0.875,-1.5,-0.625,0.5,-0.125,-1.875,-2.3125,-3.375,-6.4375,-3.9375,0.0625,-0.1875,0.1875,-0.75,0.0625,0.6875,1.125,-0.0625,0,-0.75,1.75,0.0625,-1.375,1.1875,1.75,-0.6875,-1.3125,-1.25,-0.8125,-0.0625,1.75,3.75,5.625,6.75,7,5.0625,0.9375,-2.5625,-7.25,-9.4375,-23.0625,26.8125,13.4375,-0.375,3,3.5,-2.0625,-6.8125,-9.8125,-3,4.6875,7.375,-0.3125,-4.375,-4.625,2.0625,1.4375,-0.1875,-2.875,-0.4375,-0.875,0,-4.8125,-3.25,-0.6875,-0.0625,1.1875,-3.5625,-1.3125,-1.375,-2.3125,-1.6875,-0.75,-0.125,-0.125,-0.125,-0.875,-0.1875,,,,,,,,,,,,,,,,,,,,,,,,,,,,,,,,,,,,,,,,,,,,,,,,,,,,,,,,,,,,,,,,,,,,,,,,,,,,,,,,,,,
fist,1,6,-1.1875,-0.125,-0.125,-0.5625,-1.4375,-1,1,-0.3125,-5.375,-5.75,-3.25,-0.75,-1,-0.5625,0.5625,-0.9375,0.75,2.1875,2.375,2.3125,1.8125,4.375,7.375,6.625,5.125,0.4375,-3.0625,-1.5,3.9375,8.5625,1.8125,-3.375,-3.5625,0.875,-2.9375,-1.75,-0.375,-2.4375,-3,-5.75,-1.8125,-0.0625,-2.625,-2.6875,0.0625,1.0625,0.5,-3.375,-0.875,-0.125,0.125,-1.625,0.5625,2.5,0.3125,-1.25,0.3125,0.9375,-2.6875,-0.8125,0.875,-0.375,-1.1875,1,1.875,-0.25,-1.6875,-0.5625,1.25,-0.1875,-0.5625,-0.25,0.1875,-1.8125,-0.0625,0.5,-0.0625,-1.1875,-0.0625,-0.875,-1.4375,-0.75,-1,-2.125,-1.625,1.0625,1.1875,0.4375,3.0625,7.6875,7.75,3.125,0.25,0.8125,4.9375,9.3125,4.8125,-0.625,-1.3125,-4.125,0.1875,0.4375,4.375,2,-2.8125,1.75,-2.875,2.25,3.6875,-1.125,-1.6875,5.8125,3.25,-0.8125,-1,1.6875,1.6875,-2.375,-5.75,-0.875,1.5625,-2.1875,-2.9375,0.125,1.8125,-0.875,-3.9375,-3.375,2.25,1.25,-1.1875,-3.75,-1.1875,0,-1.25,-0.3125,,,,,,,,,,,,,,,,,,,,,,,,,,,,,,,,,,,,,,,,,,,,,,,,,,,,,,,,,,,,,,,,,,,,,,,,,,,,,,,,,,,,,,,,,,,,,,,,,,,,,,,,,,
fist,1,7,-1.5,4,4.875,-0.75,-4.875,-2.5625,1.1875,5.625,5.4375,-1.5,0.5625,8.5,8.6875,-2.125,-9.875,-3.375,6.4375,8,0.3125,-5.9375,0.8125,7.0625,2.6875,-5.625,0.3125,4.3125,6.75,2.5,-5.625,-2.9375,0.6875,-1.0625,-4.25,-1.125,-0.4375,-3.75,-6,-2.9375,-2.1875,-5.375,-4.3125,-0.5,1.125,-3.625,-2.625,-2.8125,0.9375,0.875,-2.75,-3.3125,-1.25,0,0.875,-0.25,0,0.625,0.3125,-1.3125,-0.0625,0.0625,-1.125,-2,-0.25,0.4375,-0.5,0.0625,-0.125,-0.75,-0.4375,1.125,1.4375,-0.5,-0.9375,0.3125,-1.25,-0.9375,0.9375,0.3125,-1.375,-0.75,0.0625,-1.4375,-1.1875,1.5,0.6875,-1.4375,-1.375,1,0.4375,-1.125,-0.8125,0.5,0.25,-1.25,0.1875,-0.375,-1.625,-0.8125,0.1875,0.875,1.8125,1.25,1.875,1.8125,2,4.5,7.25,4.4375,1.0625,2.6875,5.9375,2.1875,1.0625,1.25,2.0625,2.125,0.6875,0.4375,0.0625,2.3125,1.25,0.3125,2.4375,0.375,-4.5,-2.625,0.875,3.6875,2.5625,-0.9375,-7.25,-8.875,-6.0625,3.125,2.0625,0.5625,-2.1875,-0.875,2.75,-1.8125,-3.4375,-3.625,-2.625,1.8125,0.75,-0.75,-3.875,-2.1875,1.3125,1.125,-0.6875,-2.375,-0.1875,-1.25,-0.375,-0.25,-0.75,0.25,,,,,,,,,,,,,,,,,,,,,,,,,,,,,,,,,,,,,,,,,,,,,,,,,,,,,,,,,,,,,,,,,,,,,,,,,,,,,,,,,,,,
fist,1,8,2.75,-1.4375,-2.875,-5.3125,-2.75,2.375,3.6875,1.125,-6.625,-3.375,15.8125,23.1875,4.9375,-13.0625,-4.75,9.125,7,-0.3125,-3.5,1.375,4,-0.625,-1.9375,-2.1875,-0.5,-2.9375,-3.125,-4.0625,-2.9375,0,-3.125,-3.8125,-2.125,-0.625,-1.9375,-0.8125,-0.25,0.3125,-0.1875,0.875,1.3125,0.25,-1.125,-0.375,-0.25,0.6875,0.4375,0.5,-0.6875,-1.125,0.0625,0.8125,-0.4375,0.5,1.1875,0.5625,0.0625,-0.6875,0.3125,1.3125,-0.875,-2.9375,2.125,1.5625,-0.875,-0.0625,0.875,2.25,4.75,7.5625,9.3125,3.5,-2.125,-5.375,-3,1.4375,3.8125,-1.5625,-0.6875,-1.5,-1.625,-0.75,-1,3.6875,-4.6875,-3.75,4.4375,2.1875,4.375,-2.125,-0.625,-2.125,1.125,-0.375,1.9375,-0.8125,-0.8125,-1.5625,-0.9375,-1.125,-0.375,-1.875,-3.6875,-1.625,-1.0625,-0.1875,-1.5,-1.625,0.125,-0.1875,-2.875,-1.25,-1.9375,2.1875,1.1875,-1.9375,-2.3125,1.4375,-1.25,-1.25,,,,,,,,,,,,,,,,,,,,,,,,,,,,,,,,,,,,,,,,,,,,,,,,,,,,,,,,,,,,,,,,,,,,,,,,,,,,,,,,,,,,,,,,,,,,,,,,,,,,,,,,,,,,,,,,,,,,,,,,,,
fist,1,9,-0.1875,-0.875,-0.625,0.4375,-0.25,-1.125,-1.0625,-0.3125,-0.8125,-1.375,-1.4375,0.0625,-1.8125,-2.375,-3.25,-2.6875,-1.5625,-4.4375,-8.5,-5.8125,1.1875,4.0625,-0.4375,1.5,8.8125,9.25,6.625,2.8125,5.5,12.3125,12.25,4.4375,-5.5625,-3.1875,0.5625,4.0625,5.5625,3.5625,-0.6875,-4.3125,-2.75,-0.875,-3.5,-1.625,-3.1875,0.125,-1.3125,-3.9375,-4.75,-6.375,-6,-2.4375,-2.25,-3.9375,-3.125,0.1875,3.25,4.8125,-0.75,-3.8125,-2.0625,-1.375,-3.375,-2.1875,-0.25,-0.4375,-2.3125,-1.125,-0.625,-1.5625,-1.8125,-1.25,-0.25,1.375,-1.0625,-0.875,1.6875,1.25,0.125,-1.25,1.375,3.375,1.5625,-1.875,1.1875,0.6875,-1.125,0.125,0.5,0.0625,0.125,1.375,1.375,0.875,2.625,2.8125,1.5,1.5,5.625,7.1875,8.375,5.1875,0.375,1,2.5,-0.375,-1.5,0.1875,1.4375,-0.625,-3.0625,-5.75,1.1875,0.0625,-0.5625,5.375,-0.9375,-2,-3.8125,0.125,0.5,2.6875,1.5625,-6.875,-0.6875,-1.8125,-0.875,-0.6875,0.8125,0.9375,-0.875,0.8125,2.0625,-1,-0.5625,-3.375,-3.5,-0.8125,1.3125,1.5625,-0.875,-1.6875,-1.1875,-1.375,-3.0625,-0.8125,-0.1875,0.8125,-0.375,-1.875,0.375,-1,-1.25,,,,,,,,,,,,,,,,,,,,,,,,,,,,,,,,,,,,,,,,,,,,,,,,,,,,,,,,,,,,,,,,,,,,,,,,,,,,,,,,,,,,,,,,,
fingersSpread,1,0,-0.75,0.1875,-0.6875,0.625,1.125,-0.8125,-0.75,-1.1875,-0.625,-0.1875,-0.75,-0.875,0.6875,1.25,0.8125,-1.0625,-0.5,0.125,0,1.8125,5.1875,9.1875,4.875,-2.8125,-6.4375,-2,-0.25,0.6875,-3,-1.0625,3.8125,-0.875,-1.6875,3.25,2.5625,-0.3125,-8.6875,-0.625,0.0625,-3.3125,-6.5625,-7.25,-6.375,1.5625,4.375,5.6875,1.875,-0.4375,-0.5,1.25,-5.1875,-2.8125,-0.4375,-3.875,0.375,1.4375,2.5625,-3.6875,-3.875,-3.1875,-3.75,-2.625,-4.875,-0.125,6.625,1.375,-4.4375,-1.5,7.125,23.3125,22.875,9.8125,-2.5,-1.1875,2.1875,3.4375,1.1875,0.1875,0.375,-1.875,-2.3125,-2.875,-2.75,-1.0625,1.5,0.9375,-0.375,-2.125,-1.4375,-1.1875,-0.75,-0.875,-2.125,-1.0625,-0.4375,-1.3125,-4.75,-5.875,-2.5625,-0.375,-0.3125,,,,,,,,,,,,,,,,,,,,,,,,,,,,,,,,,,,,,,,,,,,,,,,,,,,,,,,,,,,,,,,,,,,,,,,,,,,,,,,,,,,,,,,,,,,,,,,,,,,,,,,,,,,,,,,,,,,,,,,,,,,,,,,,,,,,,,,,,,,,,
fingersSpread,1,1,0.0625,0.75,2.4375,-0.1875,1.4375,3.0625,2.5625,-4.1875,-3.3125,-8.75,-7.0625,-5.625,-5.25,-9.0625,-3.9375,5.4375,3.6875,-5.4375,-4.3125,2.5625,-2,-6.1875,-1.125,2.875,7.375,-3,-2.1875,0.5,3.5625,-1.8125,-4.6875,-4.625,2.9375,0.1875,-0.75,-0.5625,1.0625,-7.4375,-2.25,2.5625,2.5,-5.9375,-3.5625,4.75,-0.1875,-5.9375,-1.875,4.1875,-2.8125,0.3125,5.625,9.0625,11.1875,0.8125,-3.25,0.25,4.0625,-5.9375,-7.75,-6.25,-3.3125,-0.875,-1,-6.375,-11.375,-11.875,-7.5625,-4.1875,-0.5625,0,0.0625,2.25,1.8125,1.25,3.5625,6.125,3.1875,-0.375,-1.5,0.125,-0.125,-0.875,0.25,0.4375,0.1875,-0.3125,0.25,1.0625,1.6875,0.25,-0.1875,1.0625,0.5,-0.5,-0.9375,0.1875,0.0625,-0.125,0.4375,1,0.1875,-0.1875,-0.1875,-0.1875,-0.9375,-0.75,1,0.125,0.6875,1.5,-0.125,-1.5625,0.375,0.75,-0.375,-0.75,-0.375,1.125,1.1875,0.3125,0.1875,1.1875,-0.5625,-0.625,-0.8125,0.5625,0.25,-1.0625,-0.5625,0.5625,-0.0625,-1.0625,-0.375,0.625,0.125,0.625,-0.25,-0.4375,1.5625,1.5,1.1875,0.4375,1,2,-0.375,-0.6875,-0.625,-0.5,-1,-0.9375,-0.6875,0.25,0.8125,,,,,,,,,,,,,,,,,,,,,,,,,,,,,,,,,,,,,,,,,,,,,,,,,,,,,,,,,,,,,,,,,,,,,,,,,,,,,,,,,,,,,,,,,
fingersSpread,1,2,0.125,0.375,-0.1875,0.125,-0.375,-0.25,1.0625,1.3125,0.8125,0.6875,1.4375,0.5,1.25,0.4375,-2.0625,2.125,5.25,1.3125,-1.375,6.5,3.875,4.75,-2.0625,-5.9375,-0.1875,1.125,-0.9375,-6.125,-1.875,8.375,11.5625,2.5,-6.4375,0.0625,7.75,3.3125,-3.3125,-3.625,-1.5,6.6875,1.875,-1.3125,-4.3125,-2.9375,2.9375,0.75,-2.0625,-2.875,-3.125,-3.1875,-2.625,-8.25,-1.8125,-3.875,-0.6875,1.375,-2.6875,-4.625,0.6875,0.1875,-1.6875,-7.8125,-5.375,0.8125,-0.375,0.4375,-1.4375,-7.0625,-2.375,1.375,3.375,-1.9375,-5.8125,-2.125,1.5625,1.0625,-3.875,-2.875,1.9375,1.25,-1.9375,-1.75,5.75,6.9375,7.1875,8.4375,-2.0625,-5.0625,18.3125,31.1875,17.25,-7.125,-14.4375,-10.375,1.125,2.75,-1.5625,-6.1875,-7.1875,-2.5,-1.125,-3.625,-6.5,-0.25,6.8125,7.5,3.5,-1.9375,-0.9375,1.625,3.375,3.25,0.0625,,,,,,,,,,,,,,,,,,,,,,,,,,,,,,,,,,,,,,,,,,,,,,,,,,,,,,,,,,,,,,,,,,,,,,,,,,,,,,,,,,,,,,,,,,,,,,,,,,,,,,,,,,,,,,,,,,,,,,,,,,,,,,,,,
fingersSpread,1,3,-0.9375,-1,0.5,0.1875,-0.0625,0.6875,0.3125,-0.5,0.0625,0.3125,-0.5625,-0.875,-0.25,-0.0625,-0.0625,-0.375,1.0625,1.0625,-0.75,0.125,3.75,6.9375,6.5,-4,-5.625,-2.875,5.3125,5,-0.1875,-2.5,-0.8125,-3,-0.75,6.875,1.0625,-0.125,0.5625,0.0625,2.9375,2.5,-0.3125,-5.3125,-3.375,6.125,-4.0625,-7.75,-13.125,-10.875,-4,1.25,0.8125,-2.125,-2.125,0.6875,0.4375,-0.3125,-2.3125,-2.75,2,2.375,0.75,-1.75,-2.4375,0,-0.75,-0.4375,2.125,2,-3.375,-1.3125,-1.875,-0.875,-1.875,-1.625,-0.3125,1.0625,-3.0625,-4.5,-2.6875,3.1875,0,-4.5,-5.0625,-0.625,3.4375,-0.9375,-6.1875,-1.25,3.0625,5.1875,1.3125,-2.375,0.3125,3.3125,7.875,13.1875,14.5625,-5.6875,-9.3125,-1.125,12.625,6.3125,-17.25,-22.75,-13.0625,5.6875,15.625,7.6875,-7.125,-11.125,-1.5,6.5,7.1875,2.8125,0.125,0.9375,2.75,1.5,1.125,1.4375,-0.125,-2.4375,-3.3125,-3.0625,-1.6875,,,,,,,,,,,,,,,,,,,,,,,,,,,,,,,,,,,,,,,,,,,,,,,,,,,,,,,,,,,,,,,,,,,,,,,,,,,,,,,,,,,,,,,,,,,,,,,,,,,,,,,,,,,,,,,,,,,,,
fingersSpread,1,4,0.5625,0,1.5625,0.8125,0.25,0.3125,0.0625,-0.6875,0.4375,2.25,0.4375,-1.0625,0.6875,-1.125,-0.75,1.125,2.375,4.9375,0.1875,-1.3125,-3.875,-0.6875,-3.875,1.25,-1.1875,-0.375,3.5,0.25,-2,3.375,4.375,5.5,2.875,5.125,2.5,2.75,1.6875,2.9375,2,-1.75,-0.6875,1.375,5.625,3.125,1,1.8125,-2.9375,-4.0625,-5.75,1.75,4.75,-2.0625,-3.3125,-4.1875,-1,-3.4375,-5.5625,2.25,-2.6875,-2,-8.4375,-8.1875,1.625,2.375,-2,-5.4375,-2.75,1.0625,-0.8125,-6.875,1.1875,3.4375,-3.75,-4.6875,-0.6875,-2.5,-1.5,0,5.6875,-2.4375,-5.875,1.875,6.75,3.0625,-1.9375,0.9375,10.9375,16.375,10.4375,-7.8125,2.625,6.5,10.625,-5.875,-14.5,-2.875,14.125,15.75,14.1875,-8.0625,-17.6875,-16.3125,-0.375,3.625,-4.25,-8.4375,-6,-1.125,2.3125,3.125,4.875,4.0625,1.1875,-2.25,0.125,1.9375,1.625,0.125,-2.1875,0,-1.25,-1.8125,-1.875,2,2.375,-2.3125,,,,,,,,,,,,,,,,,,,,,,,,,,,,,,,,,,,,,,,,,,,,,,,,,,,,,,,,,,,,,,,,,,,,,,,,,,,,,,,,,,,,,,,,,,,,,,,,,,,,,,,,,,,,,,,,,,,,
fingersSpread,1,5,-0.9375,0.5625,0.875,1.5,6.125,8.0625,-1.75,-4.875,-1.6875,3.9375,3.0625,0.3125,-1,0.6875,0.625,-1.125,-1.6875,-0.375,1.0625,-3.625,1.8125,-2.5625,9.875,11.5,4.3125,1.9375,-0.4375,-7.25,-2,1.75,-1.1875,-6.625,-5.5,-5,-0.4375,-6.375,-4.9375,2.5,4.6875,2.75,1.75,-1.5625,-5.75,-4.8125,-0.1875,-0.5625,-3.1875,-3,0.0625,-1.5,-11.125,-5.8125,1.75,1.8125,-11.0625,-2.25,4.5,-4.5625,-2.5,0.4375,3.375,-4.875,-1.9375,1.8125,1.1875,0.625,-1.5,1.0625,0.1875,2.3125,5,1.3125,2.6875,0.5,8.0625,1.75,5.5,6.5625,8.9375,-6.625,-17.5,-8.625,-1.125,-0.0625,-8.9375,-12.0625,-6.1875,2.6875,3.125,-1.4375,-1.4375,3.4375,6.3125,2.1875,-1.375,-0.0625,1.625,-0.125,-0.5,0.0625,-0.75,-0.625,1.4375,1.1875,-1.375,-0.9375,0.5,1.5,0.875,-0.4375,-0.75,-0.0625,1.0625,,,,,,,,,,,,,,,,,,,,,,,,,,,,,,,,,,,,,,,,,,,,,,,,,,,,,,,,,,,,,,,,,,,,,,,,,,,,,,,,,,,,,,,,,,,,,,,,,,,,,,,,,,,,,,,,,,,,,,,,,,,,,,,,,
fingersSpread,1,6,-0.1875,-0.8125,0.1875,2.6875,0.6875,-0.4375,0.125,-0.4375,-0.6875,-0.375,0.125,0.8125,0.25,1.0625,1.375,-0.0625,-0.375,1.1875,2.125,1.125,1.625,2.3125,2,-4.3125,-2.1875,5.1875,4.75,-5.375,-8.5,1,5.3125,3.25,-1.875,1.1875,4.9375,3.625,3.1875,-0.5625,1.5625,4.75,4.625,0.5625,-0.625,3.125,5,-0.6875,-8.1875,-0.9375,6.6875,3.6875,-6.4375,4.25,-0.0625,2,-1.3125,-6.4375,-6.75,-4.6875,-1.5625,4.125,-0.6875,-4.3125,-1.875,2.875,-1.5625,-1.9375,-4.1875,-1.75,2.5,-2.75,-5.5,3.5,2.125,-1.25,-1.5625,0.25,2.25,2,-0.625,-2.6875,-1.1875,3.3125,1.8125,-2.75,-3,0,1.625,-0.5,-4.75,-1.375,1.5625,-1.25,-2.125,-1.8125,0.375,0.0625,1.0625,1.3125,-1,-0.1875,1.6875,3,3.625,1.5625,2.8125,0.75,1.5625,0.0625,-7,-7.0625,-4.375,0.3125,4.4375,3.375,-0.5625,-3.5,-1.8125,0.8125,0.3125,-2.0625,-0.875,-0.3125,-0.5625,1.4375,0.75,0.125,1.4375,1.5625,0.9375,1.1875,-0.0625,-1.1875,0.3125,0.75,0.125,-0.3125,0.125,,,,,,,,,,,,,,,,,,,,,,,,,,,,,,,,,,,,,,,,,,,,,,,,,,,,,,,,,,,,,,,,,,,,,,,,,,,,,,,,,,,,,,,,,,,,,,,,,,,,,,,,,
fingersSpread,1,7,0.4375,0.6875,-0.5,0.3125,2.875,0.3125,-2.0625,-2.8125,-0.375,2.4375,1.5625,1,-2.5,0.4375,3.5,0.625,-0.0625,-3.75,-1.875,2.8125,2.3125,-0.5625,-3.3125,-2.0625,1.375,1.75,-0.25,1,3.4375,2.625,3.4375,3.5625,5.0625,4.3125,3.875,4.6875,9.375,8.6875,-3.875,-5.6875,2.3125,4.5,1.375,-5.0625,-8.5625,3.5,11.8125,5.125,-6.875,-10.3125,1.1875,6.375,-3.9375,-11,-2.0625,3,7.4375,4.5625,-2.875,-0.1875,0.125,-4.5625,-5.4375,-5.6875,1.5,1.875,-1.1875,-1.125,1,3.125,-0.0625,-5.5,-4.0625,3.5,-4.4375,-4.375,-1.6875,0.5,-0.375,-4.0625,-0.25,3.1875,-3.4375,-2.3125,6.4375,-1.25,-3,-0.5625,2.5,3.625,-1.25,-2.125,2.625,5.3125,7.4375,5.75,3.75,3.8125,7.1875,-5.5,-5.625,6.75,7.25,6.6875,-6.8125,-6.375,-0.4375,4.75,-0.0625,7.4375,5.75,3.75,-6.75,-2,0.0625,-1,-4.875,-9.8125,-8.0625,-7.1875,-12.8125,-9.875,-1.5,4.6875,3.5625,0.3125,-0.375,-0.5625,-0.9375,-0.5,1.4375,0.9375,-1.5,-1.6875,-0.5,0.8125,0.25,-0.125,0.625,2,2.5,1.75,1,,,,,,,,,,,,,,,,,,,,,,,,,,,,,,,,,,,,,,,,,,,,,,,,,,,,,,,,,,,,,,,,,,,,,,,,,,,,,,,,,,,,,,,,,,,,,,,,,,,
fingersSpread,1,8,0.375,0.125,0.125,-0.4375,-0.9375,-0.1875,0.6875,0.375,-0.5625,0.6875,1.6875,2.1875,2.5625,0.25,-0.5625,0.5625,-0.875,-0.1875,2.375,2.1875,2.8125,2.75,0,-2.8125,-2.5,-0.875,0.75,0.0625,-2.6875,1.75,8.125,3.75,4.1875,-0.625,3.125,6,4.25,2.125,-1.9375,2.125,6.625,5.0625,0.8125,-3.625,2.0625,3.5,3.9375,0.6875,0.875,-3.125,-4.6875,-0.375,1.75,1.1875,0.75,0.375,-2.1875,-4.0625,-1.375,4,4.75,-5.0625,-8.5625,-3.875,5.875,5.3125,-3.875,-11,0.9375,3.0625,-1.8125,-6.875,0.5,-1.375,-2.1875,-3.9375,-4.4375,1.9375,3.4375,0.9375,-1.0625,-5.0625,-0.0625,1.5,0.625,-5.25,0,3.125,3.4375,0.5,-2.5625,-5.25,-3.0625,-0.625,-1.5,0.1875,-1.8125,-4.5625,-4.0625,3.875,4.375,-3.375,-5.125,-0.625,2.1875,-0.625,0.125,-0.5,-1.25,-1.625,0.125,1.5625,2.0625,5.3125,4.75,1.4375,6.25,4.1875,2.8125,-2.4375,-4.8125,-9.75,-15.5625,-7.6875,3.75,8.875,3.875,-2.375,-4.0625,1.4375,8.75,9.8125,-0.0625,-10.375,-7.625,3,7.8125,4.3125,1.9375,1.125,1.9375,2.0625,0.625,-0.5625,0.3125,2.875,5.6875,2.75,-1.0625,-2.125,,,,,,,,,,,,,,,,,,,,,,,,,,,,,,,,,,,,,,,,,,,,,,,,,,,,,,,,,,,,,,,,,,,,,,,,,,,,,,,,,,,,,,,,,,,,
fingersSpread,1,9,1.5625,1.3125,1.1875,-0.3125,1.25,-0.1875,0.0625,2.5,0.3125,-1.1875,3.8125,1.25,-1.5625,-3.75,0.5625,2.875,0.875,-0.625,1.25,0.25,1,-0.8125,0.5,5.375,2.9375,-2.75,2,4.0625,3.125,9.9375,5.375,0.3125,-2.125,1.3125,4.9375,0.1875,-3,-6.875,-5,0.8125,3.8125,0.4375,-0.25,0.8125,1.3125,4.5625,2,0.125,3,2.8125,-5.5625,-10.625,-10.1875,3.25,3.3125,-2.1875,-5.25,1.875,5.25,2.6875,0.5625,-0.75,-0.1875,2.125,-1.375,-2.4375,-0.6875,0,-0.5625,-4.5,-2.75,-1.4375,-0.875,-1.8125,-2.375,-0.125,0.4375,0.0625,-1.125,-2.1875,0.0625,-1.3125,-0.375,0.1875,1.125,2.75,2.0625,-1.0625,0.25,0.25,-2.4375,-4.4375,-1.125,1.5625,-1.5625,-1.3125,-0.5,2.0625,1.875,-1.625,-3.625,-0.625,2.125,1.9375,-2.3125,-0.875,1,3.75,7,8.875,8.5625,-1.6875,-3.625,-2.1875,-0.0625,-7.8125,-13.875,-7.8125,1.25,1.9375,-3.25,-6.8125,-6.125,-2.75,0,2.5,1.125,0.8125,1.25,3.4375,5.125,4.375,3,0.25,0.6875,2.0625,-0.25,-3.125,-2.6875,-0.125,0.25,,,,,,,,,,,,,,,,,,,,,,,,,,,,,,,,,,,,,,,,,,,,,,,,,,,,,,,,,,,,,,,,,,,,,,,,,,,,,,,,,,,,,,,,,,,,,,,,,,,,,
waveOut,1,0,-0.375,0.9375,0.4375,0,-0.75,0.4375,1.4375,1.625,3.9375,8.25,4.8125,1.625,2.6875,4,3.4375,1.1875,-3.8125,-3.4375,2.625,4.3125,0.5625,9.375,7.0625,3.875,4.8125,5.9375,7.6875,8.4375,0.5625,-5.5,-1.5625,-1.75,-0.1875,-9.375,-8.125,-2.0625,1.8125,0.8125,2.5,3.1875,0.5,-4.0625,-1.625,-0.25,3.4375,4,3.3125,2.125,2.25,3.25,1.125,-2.25,-1.6875,-1.4375,3.25,-0.4375,-1.75,-7.0625,-3.5625,2.0625,1.6875,0.6875,-0.4375,-1.1875,0.1875,0.75,-1.3125,-0.625,1.75,0.25,-1.25,-1.625,-1.5625,0.875,1.1875,-0.9375,0.125,0.875,-0.5625,0.3125,1.375,-0.75,-6.875,-2.1875,5.875,-9.875,-9.4375,3.375,8.5625,-1.0625,-12.75,-1.5625,12.125,2.75,-4.625,3.25,3.4375,-2.5625,-7.4375,-0.875,9.4375,-0.4375,-20.5,-11.0625,9.75,11.5625,3.3125,-10.75,-16.8125,-4.0625,9.5625,10.125,0.1875,-6.125,-3.125,1.1875,3.625,3,0.4375,-1.4375,-0.1875,-1.875,0.125,0.5625,0.25,-0.625,,,,,,,,,,,,,,,,,,,,,,,,,,,,,,,,,,,,,,,,,,,,,,,,,,,,,,,,,,,,,,,,,,,,,,,,,,,,,,,,,,,,,,,,,,,,,,,,,,,,,,,,,,,,,,,,,,,,
waveOut,1,1,-1.375,0.75,3,0.75,6.0625,7.3125,6.3125,1.5625,-2.25,1.25,0.1875,3.5,2.375,-2.1875,1.875,2.6875,-1.4375,0.4375,-2.8125,-0.6875,2.0625,1.875,-3.875,-5.0625,-3.0625,-8.9375,-10.625,-5.625,-4.75,-10.75,-9.5625,-4.4375,-2.9375,-1.8125,6,-2.5,-6.4375,-4.8125,2.1875,2.9375,1.6875,3.5625,0.125,-2.3125,-1.1875,-1.25,0.75,-0.875,3.125,2.75,3.625,-0.3125,-2.5625,-3.4375,-1.125,-1,-1,0.6875,2.0625,3.4375,3.125,1.9375,-1.4375,-3.5625,0.875,3.25,0.3125,-2,-2.8125,1.6875,1.0625,-1.375,-3.875,-2.625,-5.3125,1,3.4375,-1.125,-7.4375,-5.5,-2.375,0.5,-3.75,-9.625,1.125,8.875,-0.3125,-0.875,-8.0625,21,19.75,-6.4375,-15.25,-1.625,21.375,21.1875,15.125,0.3125,5.625,0.875,3.25,4.25,-3.875,-4.9375,1.625,3.5625,13,15.5,9.375,2.375,-4.125,0.1875,6.25,3.3125,-0.875,-4.625,-2,3.4375,7.0625,,,,,,,,,,,,,,,,,,,,,,,,,,,,,,,,,,,,,,,,,,,,,,,,,,,,,,,,,,,,,,,,,,,,,,,,,,,,,,,,,,,,,,,,,,,,,,,,,,,,,,,,,,,,,,,,,,,,,,,,,,,
waveOut,1,2,-0.3125,2.9375,1.6875,-1.5,-1.25,0.3125,1.4375,2.625,-1.5,1.6875,-0.4375,-1.375,7.5625,9.0625,-2.0625,-6.0625,-0.875,5.0625,0,-6.875,-7.0625,-1.1875,4.0625,-6.375,-11.25,-9.4375,-5.1875,-1,-4.375,-4.875,-10.0625,-8.5625,-6.75,-4.5625,-5.3125,-8,-4.0625,-3.0625,3.75,3.6875,-0.4375,0,-2.125,-1.25,-1.8125,0.25,-0.875,-2.5,-1.1875,3,5.4375,6,5.125,-2.1875,-10.5,-7,3.75,-5.625,-9.625,2.375,11.75,7,-3,-5.9375,0.9375,3.8125,-1.5625,-5.75,-1.1875,2.3125,-3.375,-1.125,-0.75,-3.125,-7.4375,-8.25,-8.1875,-11.375,-6.625,5.1875,9.1875,1,-5.9375,6,7.4375,-4.3125,-2.875,13.25,14.1875,1.5625,-10.0625,13.5625,19.5,12.875,8.375,-4.5625,-1.4375,6.3125,7.4375,9.75,5.25,5.9375,8.125,3.4375,7.375,12.5625,6.875,9.8125,3.5625,0.4375,3.5,-0.5625,-4.25,-3.0625,0.5,2.25,-1.4375,-2.625,-5.375,-1.375,-0.625,1.25,1.0625,1.0625,,,,,,,,,,,,,,,,,,,,,,,,,,,,,,,,,,,,,,,,,,,,,,,,,,,,,,,,,,,,,,,,,,,,,,,,,,,,,,,,,,,,,,,,,,,,,,,,,,,,,,,,,,,,,,,,,,,,,,
waveOut,1,3,0.6875,1.9375,-0.125,-2.4375,1.125,4.5625,3.25,-0.5625,-0.6875,2.1875,2.5625,0.625,-2.375,-2.8125,0.875,2.5625,2.625,-4,-8.25,-2.375,0.1875,3.0625,1,2.3125,-4.4375,-3.1875,3.3125,-0.625,-4.4375,-5.3125,-5.8125,-4.25,-8.8125,-7.8125,-9.375,-8.625,-9.4375,-11.6875,-15.625,-15.6875,-9.375,-4.75,-5.375,-3.5,2.3125,0,1.8125,-2.8125,-0.9375,-0.125,1.6875,1.8125,1.5,0.0625,0.5,1.375,-1,-1.0625,1.0625,1.375,-0.875,-0.625,-0.5625,-1.5625,-2.75,-2.125,-1.3125,-0.625,0.0625,2.3125,2.875,0.625,-3.6875,-2.625,0.0625,2.25,1,-2.6875,-1.625,1.375,-0.6875,-3.375,-5.75,-0.875,-4.25,-5,1.0625,5.25,-6.375,-3.6875,10.6875,4.8125,-12.4375,-1.9375,9.75,4.875,-7.625,-2.5,8.875,-3.8125,-5.6875,7.875,8.9375,7.8125,2.5,-6.5,14.3125,10.9375,5.8125,5.375,1.25,-6.0625,4,7.1875,3.9375,-3.75,3,6.6875,1.25,2.4375,-0.0625,2.9375,,,,,,,,,,,,,,,,,,,,,,,,,,,,,,,,,,,,,,,,,,,,,,,,,,,,,,,,,,,,,,,,,,,,,,,,,,,,,,,,,,,,,,,,,,,,,,,,,,,,,,,,,,,,,,,,,,,,,,,,
waveOut,1,4,-0.25,-0.3125,1.125,1.25,1.125,2,2.0625,-0.375,-0.1875,3,2.25,1.0625,-1.625,-4.25,-2.625,-2.6875,-3.0625,1.5625,-0.4375,-2.25,-5.8125,-8.1875,-5,-0.875,0.3125,3.5,-0.0625,-9.25,-6.6875,2.625,8.5,1.25,-8.1875,-6.6875,-3.125,-3.3125,-4.8125,-4.5,-3.375,-2.625,-2.6875,-2.5625,-1.9375,-1.8125,-2,-2.75,-1.5625,-0.9375,-2.375,-4.0625,-1.3125,0.3125,0.5625,0.375,-0.5625,1.3125,-2.9375,-3.75,-0.6875,2.625,2.5,3.1875,2.25,-1,-1.75,4.25,0.5625,-3.8125,0.1875,1.8125,2.125,-0.125,1.125,0,-2.0625,-1.5,-1.9375,-2.125,-2.1875,-0.6875,0.4375,2.4375,1.9375,1.875,1.625,-2.375,-2.375,-3.75,-6.25,-4.125,-0.125,2.8125,8.0625,2.3125,-0.1875,-2.75,-0.25,2.3125,1.875,-1,-1.875,-1.1875,-1.1875,-1.9375,-3.0625,-5.0625,-3.375,-0.5625,3.0625,-2.4375,3.625,4.25,-0.5625,3.25,-1.75,0,2.4375,0.5625,9.1875,6.1875,-4.8125,5.3125,9,4.125,-2.125,8.3125,8.5625,7.9375,8.6875,2.6875,6.9375,5.6875,4.625,11.4375,10.0625,1.875,-1.625,-1.625,2.4375,5.3125,1.0625,-2.4375,1.5625,0.625,0.5625,0.5,-3.0625,-1.8125,0.6875,0.1875,-1.1875,-1.4375,,,,,,,,,,,,,,,,,,,,,,,,,,,,,,,,,,,,,,,,,,,,,,,,,,,,,,,,,,,,,,,,,,,,,,,,,,,,,,,,,,,,,,,,,,
waveOut,1,5,0.6875,0.4375,-1.5625,-1.4375,0.625,0.5,-3.125,1.625,2.125,6.5,8,5.375,-5.4375,-6.5625,5.1875,7.4375,14.4375,9.1875,3.0625,-1.5,-8.5,-6.4375,-3.3125,1.3125,-0.875,-6.5625,-5.375,-8.6875,-10.5,-9.5625,-3.9375,-4,-6.4375,-8.5,-4.625,-13.625,-18.125,-15.125,-4.75,-5.6875,-5.75,-2.9375,5.9375,5.625,3,3.0625,3.875,4,4,3.4375,0.8125,-2.25,-1.25,2.625,3.625,1.5,1.875,3.6875,4.0625,0.8125,1.75,2.75,0.4375,2.25,2.3125,2.25,2.9375,1.0625,0.1875,-4.1875,-0.125,2.625,1.8125,-1.3125,-1.5,0.6875,0.9375,-0.3125,-2.5625,-2.125,0.125,-0.375,-5.6875,-5.1875,-0.875,0,-2.375,2.5625,18.8125,-2.75,-6.4375,4,19.9375,22.8125,-2.375,-8.5625,0.25,14.125,-10.1875,-16.4375,5.9375,14,5.4375,-0.25,-1.25,-2,8.25,18.875,12.1875,8.875,-1.625,10.5625,9.625,0.8125,2.3125,8.0625,9.3125,-0.4375,-1.6875,6.5,9.375,0.4375,-2,-1.25,0.4375,2.5,1.375,-0.5625,,,,,,,,,,,,,,,,,,,,,,,,,,,,,,,,,,,,,,,,,,,,,,,,,,,,,,,,,,,,,,,,,,,,,,,,,,,,,,,,,,,,,,,,,,,,,,,,,,,,,,,,,,,,,,,,,,
waveOut,1,6,-1.0625,-0.4375,0.25,1.1875,-0.0625,-0.3125,-0.75,1.0625,1.125,1.5625,1.9375,1.5625,-0.3125,0.8125,-1.1875,-1.75,-2.1875,-2.3125,-4.375,-5.625,-2.875,2.625,4,1.5625,-0.8125,-5,-1.9375,0.4375,0.6875,-2.3125,-3.875,-0.9375,-0.0625,1.4375,1.5,-1.5,-8.0625,-6.5625,1.9375,2.5625,-4.4375,-8.5625,-4.125,-4.1875,-2.125,-12.75,-16.5,-8.875,-12.4375,-15.4375,-10.8125,-5.625,-8,-4.75,2.0625,-2.3125,-2.5,8.4375,0.125,-6.75,-4.375,-2.625,-1.75,1.4375,-0.25,0.8125,-1.6875,-1.625,-2.875,-0.0625,1.4375,1,0,6.4375,2.75,2,-0.6875,-3.9375,-0.5625,5.625,4.9375,-3.5,-3.1875,-1.3125,0.1875,3.1875,1,-8.4375,2.125,5.3125,-2.9375,-0.5,0.5,-1.375,-1.0625,0.9375,0.75,-0.0625,-1.1875,-2.0625,-4.875,0.6875,7.4375,17.3125,-9,-11.0625,5.6875,14.5,6.6875,-7.625,-14.5625,-4.875,7.125,5.1875,1.0625,-0.3125,-1.75,-0.4375,12.9375,1.8125,3.0625,3.75,0.875,6,-2.3125,1.0625,6.75,2.4375,1.4375,-5.25,-3.1875,4.75,6.8125,1.6875,-2.0625,-2.4375,-0.25,,,,,,,,,,,,,,,,,,,,,,,,,,,,,,,,,,,,,,,,,,,,,,,,,,,,,,,,,,,,,,,,,,,,,,,,,,,,,,,,,,,,,,,,,,,,,,,,,,,,,,,,,
waveOut,1,7,-1.25,0.25,0.4375,-0.75,-0.5,0.75,1.375,1.375,-0.1875,-0.9375,-0.1875,2.75,2.4375,1.75,1.8125,-0.625,0.625,2.6875,6.0625,1.0625,-1.0625,-1.5625,0.875,3.5,2.875,-0.25,-5.5625,-1.6875,0.8125,-0.125,-4.0625,-7.6875,3.1875,-0.1875,-5.9375,-5.5625,0.9375,0.75,-1.5,-1.5,-1.125,1.625,1.375,0.8125,-3.5,-3,-0.5625,-1.8125,-3.25,-0.75,-1,-6.75,-5.8125,-0.75,0,-1.0625,-4.125,-2.8125,-0.9375,-5.375,-2.125,0.25,1.625,0.625,0.375,-1.5625,-3.6875,-6.3125,-4.0625,2.625,5.1875,3.8125,6.25,1.125,-0.0625,0.6875,-0.75,-1.125,-1.0625,0.25,-1.75,-3.125,-3.5625,-1.1875,-0.875,3.625,3.8125,2.5,-1,0.4375,-0.4375,-0.3125,-2.5625,-7.125,-1.4375,1.9375,-0.125,-5.25,-2.75,-4.625,-1.25,-1.1875,-2.1875,1.9375,2,2.875,-4.125,3.5625,7.3125,1.5,3.875,0.3125,3.5,0.8125,-5.375,1.0625,2.9375,5.25,-4.6875,4.8125,20.1875,15.0625,9.4375,-6.125,-3.0625,2.75,4.1875,5.875,5.8125,10.25,9.25,1.625,0,9.4375,9,7,4,,,,,,,,,,,,,,,,,,,,,,,,,,,,,,,,,,,,,,,,,,,,,,,,,,,,,,,,,,,,,,,,,,,,,,,,,,,,,,,,,,,,,,,,,,,,,,,,,,,,,,,,,
waveOut,1,8,-6.1875,-8.9375,-5.9375,2.4375,1.625,-0.6875,-3.375,-1.625,2.375,3.25,-3,-2,2.6875,-1.0625,-2.0625,1.4375,-0.0625,4.3125,1.4375,-0.8125,3.9375,9.1875,4.125,-1.625,-8.1875,-3.875,-7.125,-4.6875,2.3125,0.5,-4.75,-6.8125,-7,-0.9375,3.1875,0.125,-0.875,-2.3125,-4.8125,-3.375,2,5.0625,2.0625,-4.6875,-0.4375,-1.4375,2.0625,2.9375,-1.625,1.625,-2.1875,-6.125,-5.875,-5.25,-1.25,1.1875,-0.6875,-3,-1.5,1.5,-1.0625,-2.6875,-1.875,0.5,1,2,0.75,2.6875,0.5625,0.25,-0.3125,1.8125,-0.25,-0.5,-0.625,0.0625,-0.8125,1.4375,2.6875,1.6875,-5.5625,-5.8125,-0.625,-2,-6.375,-1.6875,11.5625,4,0.125,0,1.5,-6.8125,-6.5625,-9.25,-10.1875,-16.625,-0.875,0.75,1.75,4.125,-4.875,11.875,16.5625,12.0625,2,3.3125,5.5,3.5,1.3125,5.75,14.8125,12,1.25,-2.5,4,6.875,4.375,3.0625,1.625,1.4375,7.3125,6.125,,,,,,,,,,,,,,,,,,,,,,,,,,,,,,,,,,,,,,,,,,,,,,,,,,,,,,,,,,,,,,,,,,,,,,,,,,,,,,,,,,,,,,,,,,,,,,,,,,,,,,,,,,,,,,,,,,,,,,,,
waveOut,1,9,-0.4375,0.1875,1.1875,-1.125,-3.0625,0.0625,-0.1875,-0.4375,0.3125,-1.25,-0.75,-1.8125,0,1.375,-0.875,-0.6875,0,-0.25,0,-1.625,-0.375,2.4375,3.1875,-3.0625,-0.1875,9.3125,15.875,6.125,-12.75,-12.4375,4.375,0.0625,-4.6875,-2.25,7.8125,6.5,-2.75,-3,-5,-10.3125,-3.5625,0.25,-1.1875,-5.75,-6.5,-4.5625,-3.3125,-3.625,-1.5,-3.375,-2.3125,-1.875,-4.0625,-2.8125,-0.5,0.125,-1.125,-2.4375,-0.5,1.75,0,0.0625,0.1875,2.625,3.1875,-1.8125,-5.25,-3.125,0.9375,1.6875,-1.625,1.125,1.8125,0.75,3.5625,1.5,-3.9375,-7.25,-2.6875,-0.1875,1.125,2.5625,0.875,0.75,0,-0.5,-2.4375,1.3125,-1.75,-6.1875,-3.5,-2.6875,0,1.1875,-0.5625,-2.625,-0.5625,3.875,-0.375,-2.5,1.625,-2.75,-6.0625,-0.5625,13.8125,1.9375,-4.5,0.4375,11.375,0.8125,-10.9375,-11,8.0625,3.75,-8.6875,-10.625,-3.75,7.9375,9,7.6875,4.1875,5,4.5,-1.125,7.0625,16.8125,5.3125,-9.125,-1.5625,4.4375,9.5625,4.875,0.125,-5.75,-2.9375,6.9375,12.125,5.25,-1.3125,-6.125,-0.75,,,,,,,,,,,,,,,,,,,,,,,,,,,,,,,,,,,,,,,,,,,,,,,,,,,,,,,,,,,,,,,,,,,,,,,,,,,,,,,,,,,,,,,,,,,,,,,,,,,,,
waveIn,1,0,12.25,12.375,-0.9375,-3.6875,-4,1.0625,6.375,0.875,-8,-11.25,-7.8125,-4.5,-4.5625,-5.0625,-11,-19.8125,-15.9375,6.6875,26.5,22.3125,7.625,3.4375,10.4375,10.4375,3.0625,-4.8125,-6.125,-4.3125,-2.9375,-3.375,-5.1875,-3.75,-5.5625,-6.875,-1.5,3.3125,0,1.25,-0.0625,0.5625,1.1875,0.3125,0.625,2.6875,3.125,-2.5,-6.375,-5.4375,4.5625,2.6875,-4.4375,-5.5,-0.25,0.8125,-1.9375,-0.8125,-2.5,-9.5625,-9.25,0,-2.3125,-13.375,-14.6875,-12,-19.875,-33.375,-27.1875,-10.25,-5.375,-24.125,-39.3125,-27.8125,-10.125,2.1875,0.6875,-1.3125,4.375,7.875,18.25,20.3125,10.625,3.1875,9.1875,19.3125,31.625,33.75,18.625,8.25,8.3125,11.125,10.625,8.625,8.75,5.5625,-0.6875,-4.75,-5.0625,-2.5625,3.5625,3.375,3.0625,-3.75,-3.875,-0.6875,2.375,4.1875,2.125,-2.5625,-5.9375,-2.375,0.8125,-0.3125,-2.8125,,,,,,,,,,,,,,,,,,,,,,,,,,,,,,,,,,,,,,,,,,,,,,,,,,,,,,,,,,,,,,,,,,,,,,,,,,,,,,,,,,,,,,,,,,,,,,,,,,,,,,,,,,,,,,,,,,,,,,,,,,,,,,,,,
waveIn,1,1,-0.5,0.25,0.25,1.375,-0.6875,-0.6875,-0.1875,-1,-0.5,-2.5625,-1.4375,-1.5625,-10.6875,-21.375,-15.125,-15.5,-6.625,1.875,-0.4375,1.75,4.375,15.125,19.375,12.125,7.875,11.4375,14,14.625,8.375,6.25,2,4.5,0.5,-2.3125,-1.625,-2.8125,-1.125,2.625,0.25,-2.4375,-1.8125,1.875,1.875,-2.375,-2.0625,-1.25,-1.125,0.4375,2.8125,-0.75,-2.625,0.6875,1.375,-0.9375,-1.4375,1,2.25,-0.25,-2.9375,-0.0625,1.25,-1.75,-3.5,-1.0625,0.375,-2.125,-3.4375,-1.9375,-0.875,-1.25,-1.4375,0,-0.3125,-1.25,-1.875,0.1875,0.4375,-2.3125,-4.875,-4.375,-6.125,-12.375,-16.1875,-18.5,-18.5,-20.8125,-20.125,-15.0625,-3.125,6.5,6.375,4.25,2.8125,2.3125,6.9375,21.4375,14.1875,11.875,3.875,1.0625,3.625,6.3125,8.25,2.6875,-1.4375,-2.8125,-0.5625,1.375,1.5625,-0.625,-0.375,-3.75,-2.6875,1.875,2.25,-2.0625,-5.625,,,,,,,,,,,,,,,,,,,,,,,,,,,,,,,,,,,,,,,,,,,,,,,,,,,,,,,,,,,,,,,,,,,,,,,,,,,,,,,,,,,,,,,,,,,,,,,,,,,,,,,,,,,,,,,,,,,,,,,,,,,,,
waveIn,1,2,-2,-0.375,1.6875,2.0625,-1.6875,-1,1.375,1.5625,-0.4375,-2.25,-0.0625,2.1875,1.9375,-0.5,-1.25,2.125,2.125,0.5625,-1.0625,-0.625,2.6875,2.1875,4.1875,1.125,-0.375,0.375,4.6875,5.9375,-0.4375,-5,-7.1875,0.5,5.625,13.0625,11.125,8.125,9.9375,6,-4.25,-15.0625,-13.875,-9.625,5.4375,7.75,6.875,13.6875,14.875,18.4375,16.125,10.75,5.75,-0.0625,-1.3125,2.25,-0.375,-3.1875,-3.9375,-4.75,1.5,2,1.25,-1.125,2.75,3.6875,0,-2.625,0.6875,4.5625,-1.6875,-1.875,-0.4375,1.1875,-1.125,-4.5625,-1,1.625,1.6875,3.4375,-1.625,-5.625,-3.375,-2.3125,-5.125,-8.4375,-8.875,-9.8125,-14.1875,-18.375,-24.8125,-28.9375,-25.5625,-17.375,-10.6875,-10.25,-5.8125,-2.75,0.5625,6.8125,7.75,1.8125,-4.25,-2.875,6.375,17.6875,18.375,6.6875,-2.8125,-4.4375,4.8125,8.125,8.6875,9.125,3.3125,-2.6875,-2.8125,0,2.875,3.1875,0.9375,-1.75,-5.375,-1.75,2.0625,1.1875,-0.3125,-1.375,-1.875,,,,,,,,,,,,,,,,,,,,,,,,,,,,,,,,,,,,,,,,,,,,,,,,,,,,,,,,,,,,,,,,,,,,,,,,,,,,,,,,,,,,,,,,,,,,,,,,,,,,,,,,,,,,,,,,,,,
waveIn,1,3,1.25,0.9375,0.5,-0.625,-0.3125,0.75,3,1.0625,-2.125,-2.1875,0.125,4.1875,5.625,-3.75,-10.5625,-2.25,0.8125,9.4375,6.375,-1.5,-5.75,-2.5625,8.625,9.75,-4.9375,-16.3125,-18.125,-10.125,-4.1875,3.1875,3.75,3.9375,10.875,9.75,4.5625,2.9375,5.875,11.8125,12.5,11.375,4.875,6.75,12,13.0625,5.9375,0.3125,1.625,5,5.875,-3.4375,-1.125,4.6875,6.0625,-0.6875,-3.375,0.0625,3.875,-0.375,-5,-3.625,-1.8125,0.5625,-0.5625,-2.9375,-1.4375,-0.6875,1.0625,-0.9375,-3,-0.25,-0.75,-2.125,-5.5625,-6.375,-9.75,-9.0625,-1.625,-4.8125,-14.875,-19.75,-10.8125,-6.75,-9.6875,-18.5625,-13.8125,-0.75,5.1875,-6.0625,-23.4375,-22.625,0.5,17.25,9.8125,-11.625,-20.1875,-5.125,13.0625,10.875,-6.125,-8.5,5.25,18.8125,6.25,-14.1875,-17.75,2.5625,21.8125,16.3125,-5.875,-18,0.875,20.125,16.625,-2.375,-10.3125,-4.6875,11.6875,13,-1.375,-10.75,-9.625,0.3125,4.625,3.5625,-1.3125,-3.625,-0.5,,,,,,,,,,,,,,,,,,,,,,,,,,,,,,,,,,,,,,,,,,,,,,,,,,,,,,,,,,,,,,,,,,,,,,,,,,,,,,,,,,,,,,,,,,,,,,,,,,,,,,,,,,,,,,,,,,,
waveIn,1,4,-1.3125,0.3125,1.375,-0.3125,-2.4375,-1.125,1.4375,2.3125,0.0625,-3.4375,-6.625,-1.25,3.25,3.625,0.25,-5.75,-4.1875,1,5.6875,4.125,-3.4375,-4.0625,1.1875,4.6875,2.5,-1.6875,-7.875,-3.1875,2.625,-0.0625,-1.625,3.3125,-3.875,0.75,11.1875,20.5625,16.375,9.25,2.5,-0.5625,3.375,7.9375,8.125,2.3125,-4.8125,-3.6875,-0.0625,-3.875,4.5625,5.75,7,11.375,12.375,11.125,11.125,3.375,7.9375,9.9375,9.375,11.125,6.625,5.9375,4.125,1.75,1.125,1.5,-3.875,-3.875,-2.6875,-5.5,-6.125,-0.0625,3.5,2.4375,-0.25,-0.1875,-3.0625,-3.0625,-1.4375,0.5,1.625,3.8125,3.0625,2.3125,-1.25,-3.6875,0.75,1.25,0,-1.125,0.1875,1.5,-0.125,1.3125,0.75,1.0625,1.6875,-2.5625,-7.125,-4.625,-3.1875,-7.875,-14.75,-20.5,-24.8125,-23.9375,-15.8125,-7.9375,-6.8125,-16.25,-15.375,-1.25,11.4375,12.375,4.0625,-4.0625,-7.6875,2.125,15.1875,16.9375,6.1875,-4.0625,6.1875,17.5,6.125,-13.25,-12.625,1.5,10.6875,5.6875,-7.3125,-7.1875,-1.5625,5.5,0.0625,-8.75,-8.625,-2.4375,0.375,-2.5,-3.3125,-3.4375,-1.5625,2.4375,2.0625,-3.1875,-2.6875,-2.5,1.8125,3.5,,,,,,,,,,,,,,,,,,,,,,,,,,,,,,,,,,,,,,,,,,,,,,,,,,,,,,,,,,,,,,,,,,,,,,,,,,,,,,,,,,,,,,,,,,,,
waveIn,1,5,0.75,1.0625,-0.125,0,1.6875,2.0625,4.125,15.5,12.25,6.125,-2.875,0.3125,13.4375,12.9375,1.375,-2.125,5.6875,13.4375,10.375,-1.0625,-6.125,-0.6875,6.8125,10.9375,-8.1875,-18.25,-10.5625,-5.125,-8.8125,-25.25,-33,-24.0625,-6.6875,2.875,7.0625,3.3125,-1.5,4.0625,8.75,11.4375,12.25,11.5,7.5625,7.625,6.375,3.9375,4.875,3.875,3.5625,6.375,9,10.875,11.25,5.9375,6.25,6.4375,2.9375,-1.5625,-1.375,-0.5625,-1.875,0.375,2.5625,-1.75,-2,1.1875,0.0625,-1.875,-1.75,-3.5,-4.1875,-1.5625,-3.6875,-7.125,-8.1875,-7.4375,-4,2.625,0.875,-1.375,-1.9375,-0.375,-0.125,0.6875,0.6875,-1.25,-0.4375,-2.125,-2.5,-3.3125,-4.375,-6.1875,-7.625,-12.5625,-15.1875,-8.8125,-8.125,-15.0625,-18.9375,-12,-4.6875,0.8125,-1.875,-6.75,-2.25,4.6875,6.625,1.875,-4.625,-7.25,-1,13.0625,14.0625,5.875,-2.5,-4.3125,-3.9375,-0.0625,0.5625,8.0625,7.8125,5.625,0.875,0.875,4.375,2.125,1.1875,10.75,16.8125,6.875,-5,-14.75,-4.0625,9.3125,8.25,0.4375,-6.5,-4.625,,,,,,,,,,,,,,,,,,,,,,,,,,,,,,,,,,,,,,,,,,,,,,,,,,,,,,,,,,,,,,,,,,,,,,,,,,,,,,,,,,,,,,,,,,,,,,,,,,,,,,,,
waveIn,1,6,-2.0625,-2.625,-0.125,2.375,-0.0625,-1.8125,-0.8125,0.8125,1.75,0.25,-1.25,-3.125,0.0625,-0.75,-2.5625,-0.625,0,0.625,-0.25,0.6875,1,0.0625,-3.5,-14.5,-18,-14.25,-4.375,2.625,5.3125,-1.375,0.125,6.5,9.4375,5.6875,1.625,-1.0625,3.0625,5.25,1.9375,1.4375,0.375,1.0625,-1.3125,-12.0625,-11,-0.75,4.25,6.5,5,11.1875,18.6875,17.1875,10.6875,4.3125,8,8.625,7.625,1.75,-0.3125,0.6875,1.3125,0.6875,-0.375,-0.6875,1,3,0.75,1.8125,1.125,0.5625,-0.0625,-5.625,-11.5625,-2.5625,6.9375,0.5,-8.625,-10.625,-3.875,3.25,1.5,-6.25,-5.875,0.375,-0.375,-3.875,-0.6875,0.0625,-1.125,-0.625,0,-0.0625,-0.8125,-1.6875,-3.3125,-5.5,-7.3125,-9.6875,-15.1875,-21.1875,-14.8125,-3.1875,3.9375,-6.75,-12.625,-8.3125,4.5,6.625,-1.3125,-3.5,1.125,8.625,8,4.5,-5.6875,-1.125,2.1875,6.8125,3.125,-2.375,-6.875,-0.4375,8,11.625,-0.6875,-7.5,-5.1875,7.875,13.625,8.125,-2.875,-8.4375,1.3125,8.9375,1.375,-4,-10.125,-5.4375,4,2.5625,-1,-5.375,-3.4375,3.5625,3.1875,-1.125,-3.875,2.4375,2.625,-1.375,0.9375,-2.1875,,,,,,,,,,,,,,,,,,,,,,,,,,,,,,,,,,,,,,,,,,,,,,,,,,,,,,,,,,,,,,,,,,,,,,,,,,,,,,,,,,,,,,,,,,
waveIn,1,7,0.875,5.5,5.8125,0.9375,0.75,-0.4375,-0.5,1.25,2.3125,0.625,2.125,-0.125,0.6875,1.3125,6.3125,8.9375,9.625,10.0625,8.125,7.25,6.6875,6.0625,1.8125,1.0625,3.8125,8.375,9.4375,10.8125,5.375,1.875,2.4375,9.5,15.375,22.625,31.6875,23.5625,14,5.75,10.375,18.9375,15.25,8.625,7.4375,9.375,5.125,1.625,0.1875,-1.875,-4,-2.3125,-0.3125,0.25,-1.1875,-4.1875,-0.9375,1.6875,-0.8125,-2.0625,1.8125,1.375,-2.125,0.125,1.6875,3.0625,3.0625,1,-0.6875,-0.9375,-0.1875,-3.1875,-3.9375,-2.125,0.8125,1.5625,0.875,-0.8125,-1.375,0.375,0.3125,-6.3125,-17.125,-15.875,-10.75,-3.5,-0.625,-1.875,-1.25,-1.1875,-1.0625,-1.25,-3.75,-6.25,-4.625,-6.625,-8.25,-9.25,-10.75,-5.25,-4.9375,-10.5,-18.9375,-23.9375,-16.75,-3.5625,8.625,7.25,-2.5625,-12.5625,-16.875,-11.375,5.1875,14.8125,8.6875,-3.9375,-5.875,-1.875,2.1875,2.1875,-4.875,-6,-3.375,0.4375,2.125,1.75,2.5,1.3125,0.125,-1.75,-0.8125,0.375,-1.6875,-5.5625,-2.1875,2.4375,-0.3125,-2.6875,2.6875,3.6875,0.8125,-1.3125,-2.25,0.125,1.5,1.5625,2.5625,1.4375,2.4375,-3.0625,-1.5,,,,,,,,,,,,,,,,,,,,,,,,,,,,,,,,,,,,,,,,,,,,,,,,,,,,,,,,,,,,,,,,,,,,,,,,,,,,,,,,,,,,,,,,,,,,,
waveIn,1,8,0.1875,0.25,0.5,-1.9375,-2,-1.8125,-1.1875,4.6875,4.875,7.125,5.25,2.75,2.4375,9.625,9.375,9.875,7.4375,3.75,0.375,-2.5625,-4.3125,-2.375,-5.5625,-6.125,-0.875,4.125,5.4375,5.6875,5.875,5.3125,8.4375,10.375,8.875,4.6875,5.875,6.5625,7.75,5.5,6,7.375,8.125,8.625,10,7.4375,6.125,6.625,5.375,2.75,0,1.8125,2.3125,2.6875,1.8125,0.5,-0.5625,-0.125,0,0.375,3.5625,3,2.3125,2.25,1.5,0.25,1.875,0.8125,-1.25,4.125,5.4375,4.8125,2.125,0.625,2.1875,2.875,0.4375,-2.0625,-0.1875,-1.6875,-2.4375,-4.0625,-1.8125,-1.125,-4.375,-3.8125,-3.25,-4.625,-11.125,-11.125,-8.875,-8.3125,-9.125,-10.1875,-8.6875,-1.9375,-3.1875,-8.5625,-11.4375,-8.5,2.5,15.0625,14.6875,-2.9375,-14.75,-11.5,-2,12.3125,9.1875,-4.4375,-9.3125,-2.75,8.0625,8.25,3.375,-3.1875,-0.625,5.125,5,-5,-11.75,-4.6875,2.5,1.1875,-3.375,-5.125,-4,-0.25,-2.75,-7.0625,-3,0.875,2.5625,2.8125,-0.375,1.9375,1.375,1.375,2.25,-3,0.5625,2.9375,-3.375,-3.625,-4.4375,0.375,1.25,-0.8125,-1,-2.9375,-1.625,,,,,,,,,,,,,,,,,,,,,,,,,,,,,,,,,,,,,,,,,,,,,,,,,,,,,,,,,,,,,,,,,,,,,,,,,,,,,,,,,,,,,,,,,,,,,
waveIn,1,9,1.5625,2.1875,1.625,1.1875,1.25,1.0625,1.1875,0.1875,-0.375,1.3125,1.625,0.375,-0.6875,-0.1875,2.875,6.25,4.375,-0.0625,-3,-1.75,8.1875,10.8125,8,-0.625,-7,1.25,7.125,1.125,-2.9375,-2.5625,-0.3125,0.4375,-1.5,-3,1.3125,6.5,14.125,12.5,1.5625,-11.8125,-9.125,-3.125,2.4375,1.1875,-7.5,-11.4375,-13,-5.0625,1.9375,1.125,-3,-6.3125,-1.75,4.8125,8.1875,7.875,6.5,6,7.375,9.6875,8.875,5.5,3.0625,6.8125,12.375,11.0625,9.3125,10.6875,11.9375,12.125,5.4375,1.5625,3.625,5.8125,3.25,-0.625,0.25,5.5625,2.125,-6.1875,-6.625,9.3125,11,1.6875,-1.375,5.5625,10.1875,3.875,1.625,3.875,6.1875,1.5625,-2.125,-2.1875,1.25,1.375,-1.25,1.875,0.375,0.375,-2,-4.625,-4.875,-2.6875,-1.5,-2.25,-7.5625,-12.5,-10.6875,-9.625,-12.4375,-15.125,-16.0625,-16.375,-16.5625,-16.375,-12.3125,-4.6875,-2.375,-6.625,-8.25,3.5625,9.0625,0.5625,-7.375,-6.6875,-2.25,7.1875,4.375,-6.6875,-11.3125,0.75,9.6875,5.5,-0.75,-3.125,-0.875,1.3125,2.1875,1.8125,0.3125,1.8125,0.5625,0.75,2.5625,2.875,3.1875,1.3125,-5.375,-8.375,-1.3125,3.25,0.875,-1.8125,-3.0625,-2.3125,3.5625,2.1875,-3,-9.1875,1.4375,4.5625,2.875,-0.0625,-1.8125,-6.1875,,,,,,,,,,,,,,,,,,,,,,,,,,,,,,,,,,,,,,,,,,,,,,,,,,,,,,,,,,,,,,,,,,,,,,,,,,,,
doubleTap,1,0,-0.4375,-0.4375,-0.125,-0.5625,-1.6875,-0.4375,1.25,0.6875,1.6875,0.5625,0,-1.1875,-2.5625,1.9375,1.0625,0.4375,-1.875,1.625,-2.1875,-3.375,34.6875,32.9375,22.25,-48.1875,-50.25,1.4375,102.0625,83.5625,-29,-145.625,-36.75,120.6875,-31.0625,-143.1875,-32.5,74.875,105.0625,-19.4375,-145.125,-62,24.875,43.6875,7.5,-12.1875,-12.375,1.0625,4.75,2.0625,4.25,-0.375,-3.0625,-3.125,-2.75,-2.1875,-3.1875,-2.1875,2.625,-1.625,0.875,-5,-0.625,1.6875,-1.375,-3.625,-2,0.6875,1.25,-0.375,-1.9375,-2.0625,1.3125,4.6875,-0.25,-2.875,-1.875,2.25,,,,,,,,,,,,,,,,,,,,,,,,,,,,,,,,,,,,,,,,,,,,,,,,,,,,,,,,,,,,,,,,,,,,,,,,,,,,,,,,,,,,,,,,,,,,,,,,,,,,,,,,,,,,,,,,,,,,,,,,,,,,,,,,,,,,,,,,,,,,,,,,,,,,,,,,,,,,,,,,,,,,,,
doubleTap,1,1,0.875,1.4375,-1.3125,-2.9375,-0.0625,1.4375,-0.6875,-1.4375,-0.25,0.75,-2.375,-2.8125,3.875,4.1875,23.625,-4.9375,-28.875,-8.3125,24.6875,44.5625,22.375,-49.9375,-73.25,23.875,88.625,20.9375,-73.9375,-32.875,28.875,36,22.375,2.375,-58.1875,-65.1875,-12.6875,23.125,29.875,18.5,-3.625,-8.75,2.875,8.25,4.1875,-4.25,-1.5,0.9375,1,0.25,-0.1875,2.3125,-1.8125,-0.9375,2.625,0.0625,-4.5625,-4.5,6.3125,,,,,,,,,,,,,,,,,,,,,,,,,,,,,,,,,,,,,,,,,,,,,,,,,,,,,,,,,,,,,,,,,,,,,,,,,,,,,,,,,,,,,,,,,,,,,,,,,,,,,,,,,,,,,,,,,,,,,,,,,,,,,,,,,,,,,,,,,,,,,,,,,,,,,,,,,,,,,,,,,,,,,,,,,,,,,,,,,,,,,,,,,
doubleTap,1,2,-0.75,0.25,0.625,1.5,0,-0.875,-3.4375,-6.0625,5.5,6.0625,23.8125,9.0625,-30.8125,-5.9375,14.5625,36,67.9375,5.375,-78.6875,-80.3125,32.8125,95.6875,4.4375,-102.1875,-33.3125,67.1875,20.875,14.25,27.6875,-2.625,-58.875,-41.75,-8.375,14.5,21.6875,9.3125,-13.1875,-18.25,-7.625,5.875,10.875,3.875,-3.25,-0.9375,-0.875,2.3125,0.0625,-4,-3.625,2.6875,0.875,-7.8125,3.25,6.625,1.0625,-7.625,-2.25,4.3125,6.6875,4.5,-2.3125,-1.375,1.1875,,,,,,,,,,,,,,,,,,,,,,,,,,,,,,,,,,,,,,,,,,,,,,,,,,,,,,,,,,,,,,,,,,,,,,,,,,,,,,,,,,,,,,,,,,,,,,,,,,,,,,,,,,,,,,,,,,,,,,,,,,,,,,,,,,,,,,,,,,,,,,,,,,,,,,,,,,,,,,,,,,,,,,,,,,,,,,,,,,,
doubleTap,1,3,-0.5625,-1.125,0.625,1.625,-0.5625,-3.0625,-0.8125,1.8125,1.5625,-2.6875,-1.4375,0.125,-0.125,-2.5625,-1.125,1.5625,1.125,-2.0625,1.6875,-2.375,1.6875,8.4375,23.4375,18.9375,-43.125,-30.4375,24.1875,78,18.1875,-53,-96.25,5.3125,104.25,18.125,-76,-28.9375,11.6875,71.0625,44.9375,-67.9375,-106.625,-17.4375,41.9375,37.375,7.625,-14.875,-14.5,-2.6875,-0.75,6.1875,3.75,0.25,-4.5625,-0.3125,2.125,0.25,-1.75,-0.1875,2.25,1,-2.625,2.0625,-3.375,-5.5,-2.6875,2.5625,6,-1.125,-6.3125,-3.9375,-0.6875,-0.75,-1.25,0.6875,0.25,-0.0625,-0.875,1.8125,0.0625,-0.9375,-1.9375,0.8125,-0.375,0,-1.6875,-1.125,1.0625,0.0625,0.375,-2.5,,,,,,,,,,,,,,,,,,,,,,,,,,,,,,,,,,,,,,,,,,,,,,,,,,,,,,,,,,,,,,,,,,,,,,,,,,,,,,,,,,,,,,,,,,,,,,,,,,,,,,,,,,,,,,,,,,,,,,,,,,,,,,,,,,,,,,,,,,,,,,,,,,,,,,,,
doubleTap,1,4,-1.125,1.375,2.25,-1.1875,-1.9375,0.1875,2,-5.125,6.6875,-0.125,18.1875,18.5625,-31.1875,-17.0625,-3.3125,92.8125,59.875,-37.75,-98,-44.5625,69.9375,96.3125,-28.8125,-52.4375,12.3125,8.75,32.1875,31.125,-44.125,-80.1875,-24.375,18.5,34.3125,20.625,-4.0625,-22.625,-16,2.625,7.3125,7.3125,0.875,-1.3125,-1.875,4.0625,0.875,-2.375,-3.9375,0.1875,3.875,-1.0625,3.25,3.8125,2.0625,-4.4375,-4.3125,-0.875,4.125,3.25,1.4375,2.625,-0.375,-1.3125,-1.125,0.0625,-1.375,0.75,-1.25,1.375,-0.8125,-0.6875,0.3125,1,2.0625,-2,-1,-0.4375,2.75,1.0625,,,,,,,,,,,,,,,,,,,,,,,,,,,,,,,,,,,,,,,,,,,,,,,,,,,,,,,,,,,,,,,,,,,,,,,,,,,,,,,,,,,,,,,,,,,,,,,,,,,,,,,,,,,,,,,,,,,,,,,,,,,,,,,,,,,,,,,,,,,,,,,,,,,,,,,,,,,,,,,,,,,,
doubleTap,1,5,0,1.75,1.3125,-1,0.0625,0.75,0.625,0.0625,-0.1875,0.6875,0.625,-0.5625,0.375,0.125,0.875,1.125,-6.75,-5.9375,5.125,19.6875,24.75,-5.0625,-52.875,-10.1875,27.4375,29.6875,32.125,-10.4375,-47.6875,-53.3125,26.625,96.3125,6,-86.375,-14.1875,37.75,30.125,31.875,14.9375,-69.3125,-67.1875,5.0625,36.75,29.9375,-0.0625,-18.875,-10.9375,2.1875,7.5625,2.8125,-0.5,-1.4375,0.1875,0.5,0.1875,-0.6875,-0.5,-1.8125,3.1875,-9.3125,-3.6875,0.0625,9.4375,5.0625,-1.8125,-8.6875,-3,7.4375,2.5625,-1.75,-1.875,0.3125,0.5,-0.625,-0.0625,0.625,1.125,-0.625,-1.8125,0.4375,1.625,0.25,-1.625,0.625,1.375,,,,,,,,,,,,,,,,,,,,,,,,,,,,,,,,,,,,,,,,,,,,,,,,,,,,,,,,,,,,,,,,,,,,,,,,,,,,,,,,,,,,,,,,,,,,,,,,,,,,,,,,,,,,,,,,,,,,,,,,,,,,,,,,,,,,,,,,,,,,,,,,,,,,,,,,,,,,,
doubleTap,1,6,0.1875,-1.4375,-0.375,0.5625,-1,-0.3125,0.5,0,-0.5625,0.4375,-0.125,0.5625,0.1875,-0.375,0.0625,0.375,0.125,-2.375,-4.1875,0,10.625,1.75,14.625,-7.4375,-26.9375,-11.4375,12.75,41.5625,33.75,-12.3125,-66.6875,-43.75,32.75,72.0625,28.8125,-59.9375,-33.125,34.9375,13.9375,61.375,22.5625,-64.5,-75.0625,-12.1875,28.5,33.25,10.875,-14.1875,-18.25,-5.25,9,11.0625,0.875,-3.1875,-4.8125,3,3.3125,-2.5,-1.25,3,0,6.9375,5.625,5.875,1.1875,-7.875,-3.6875,2.6875,7.625,6.875,0.25,-0.8125,0.4375,1.9375,0.0625,0.125,0.6875,-0.6875,-0.25,0.1875,-0.6875,0.3125,-1.5625,1.125,-0.5625,,,,,,,,,,,,,,,,,,,,,,,,,,,,,,,,,,,,,,,,,,,,,,,,,,,,,,,,,,,,,,,,,,,,,,,,,,,,,,,,,,,,,,,,,,,,,,,,,,,,,,,,,,,,,,,,,,,,,,,,,,,,,,,,,,,,,,,,,,,,,,,,,,,,,,,,,,,,,
doubleTap,1,7,0.8125,-1,-0.3125,1.3125,0.6875,-4,-5.125,5,3.875,12.9375,4.6875,-25.1875,-14.625,13.125,16.8125,19.1875,20.3125,-32.0625,-66.0625,-0.25,73,59.25,-40.625,-54.875,26.0625,34.75,45,12.375,-48.4375,-72.875,-17.125,13.25,22.25,11.125,-6.5,-6.625,-2.6875,4.3125,3.125,1.4375,0.0625,-1.5,4.9375,0.9375,1.6875,-0.1875,1.9375,-0.5625,2.0625,0.375,-1.6875,-4.1875,1.1875,7.125,0.75,5.625,4.6875,-0.75,-6.0625,-6.5625,3.625,2.25,-4.625,-0.25,2.3125,-1.1875,-1.125,-1.4375,0.6875,1.8125,-0.5625,-0.625,0.6875,-0.1875,1.8125,-0.625,0.75,-1.875,0,0.125,0,-0.875,,,,,,,,,,,,,,,,,,,,,,,,,,,,,,,,,,,,,,,,,,,,,,,,,,,,,,,,,,,,,,,,,,,,,,,,,,,,,,,,,,,,,,,,,,,,,,,,,,,,,,,,,,,,,,,,,,,,,,,,,,,,,,,,,,,,,,,,,,,,,,,,,,,,,,,,,,,,,,,,
doubleTap,1,8,0.1875,-1.0625,0.5,-1.125,-1.9375,3.0625,-5.5,-4.5,5.9375,14.5625,16.875,-27.125,-24.0625,2.4375,21.6875,41.375,12.125,-36.625,-62.25,-2.75,58.3125,80.5625,-17.8125,-74.25,17.8125,53.0625,28.5625,-8.5,13.125,14.25,-22.5625,-43.875,-31.9375,-2.9375,11.5,13.375,0.875,-3.9375,-6.25,-1.8125,5.6875,3.6875,1.1875,-0.6875,-3.125,0.5625,4.3125,-4.0625,4.3125,5.625,8.3125,6.4375,-1.125,-9.3125,-2.9375,4.6875,5.4375,4.125,1.5625,-0.875,-1.125,-2.0625,-1.5,1.25,1.4375,1.5,-0.3125,-0.4375,-1.5,1.375,1.625,-0.3125,-1.8125,,,,,,,,,,,,,,,,,,,,,,,,,,,,,,,,,,,,,,,,,,,,,,,,,,,,,,,,,,,,,,,,,,,,,,,,,,,,,,,,,,,,,,,,,,,,,,,,,,,,,,,,,,,,,,,,,,,,,,,,,,,,,,,,,,,,,,,,,,,,,,,,,,,,,,,,,,,,,,,,,,,,,,,,,
doubleTap,1,9,1.125,0.1875,-0.75,-1.4375,0.5,1.875,-0.5625,-1.375,0.6875,3,0.75,-1.125,0.375,0.5,-7.25,-7.4375,7.75,13.3125,21.6875,-19.375,-32,-5.375,25.0625,39.625,15,-40.75,-67.5625,15.375,96.125,5,-63.4375,-5,43,24.5,5.8125,5.9375,-25.75,-69.75,-26.1875,17.3125,28.625,11.0625,-10.125,-13.5625,3.5625,11.875,6.8125,-6.8125,-5.1875,1.125,5.375,1.875,-1.875,-0.6875,-1.0625,7.375,0.375,-1.8125,5.375,8.9375,1.5625,-7.3125,-5,2.25,7.75,0.25,-1.4375,-1.0625,1.125,0.875,-0.625,-2.125,1.3125,0.25,0.75,1.375,0.625,0.25,0.625,-0.625,-0.0625,0.1875,-0.625,0.6875,,,,,,,,,,,,,,,,,,,,,,,,,,,,,,,,,,,,,,,,,,,,,,,,,,,,,,,,,,,,,,,,,,,,,,,,,,,,,,,,,,,,,,,,,,,,,,,,,,,,,,,,,,,,,,,,,,,,,,,,,,,,,,,,,,,,,,,,,,,,,,,,,,,,,,,,,,,,,,
fist,2,0,-1.5625,-1.625,-1.3125,-0.5,-0.375,0.4375,0,-0.625,-1.875,-1.25,-1.8125,-1.625,-2.3125,-1.8125,-1.1875,-1,-1.75,-1.375,-0.875,0.8125,1,0.3125,-1.125,-1.125,-0.5625,0.375,1.125,0.5625,0.3125,0,-0.25,0.0625,0.3125,0.3125,0.375,0.125,-0.4375,-1.875,-1.0625,-1.4375,-2.1875,-2.8125,-2.25,-1.125,-0.5,-0.4375,-1.6875,-2.125,-1.9375,-0.6875,0.5,0.8125,-1.3125,-1.5625,0.3125,1.625,1.25,0.4375,-0.9375,0.3125,0,-0.75,-0.9375,-0.3125,2.5,4.625,4,4.1875,4.9375,0.6875,3,2,6.125,3.875,5.125,3.8125,2.3125,4.0625,4.3125,4.75,7.875,11.75,8.6875,13,11.4375,8.5,6.0625,8.8125,10.75,14.3125,11.25,-0.625,-1.5625,5.9375,9.1875,4.0625,-3.25,-1.8125,-2.125,-0.875,-1.5,-4.0625,-4.8125,-1,1.4375,-2.9375,-4.8125,-1.625,2.375,-3,-3.5625,-3.4375,-1.6875,-1.25,-2.8125,-0.5,0.5625,-0.9375,-5.4375,-0.6875,4.625,-0.125,-1.9375,-3.4375,0.5625,1.5,-1.375,-4.6875,-4.625,-3.9375,-6.625,-6.4375,-4.5625,-5.8125,-4.4375,-5.4375,-0.6875,-4.875,-11.0625,-0.5625,2.5,-0.3125,-4.375,-6.25,-12.5,-10.0625,-8.4375,-1.9375,-5.6875,-7.8125,-3.8125,-3.8125,3.9375,5.5625,7.625,9.8125,3,2.25,-1.375,-3.375,3.1875,6.6875,-0.625,-1,3,0.125,-4.875,-1.9375,1.125,1.8125,-1.3125,-6.25,-6.0625,-3.6875,-2.9375,-0.8125,1.375,0.3125,-1.4375,-8.875,-4.5625,-0.25,2.9375,1.3125,1.8125,-1.6875,-0.875,-1.75,0.25,1.25,-2.25,-2.4375,-0.625,-1.625,-2.375,,,,,,,,,,,,,,,,,,,,,,,,,,,,,,,,,,,,,,,,,,,,,,,
fist,2,1,-2,-2.3125,-0.5625,0.6875,-0.5625,-1.75,-2.375,-2.25,-1,-1.875,0.875,-0.5625,-2.125,-2.5,-1.9375,0.75,0.3125,-0.125,0.25,3.3125,6.875,11.1875,-2.75,-5.375,-0.9375,14.3125,17.75,23.75,10.1875,3.25,0.875,-1.125,7.375,13.5625,11.0625,9.5,8.5,7.1875,11.1875,13.375,11.5,7.3125,4.8125,3.0625,4.5625,2.3125,5.3125,1.8125,-1.0625,-1.75,0.875,3.25,-0.875,-3.6875,-5.375,0.8125,-1.5,-0.6875,-0.9375,1.625,3.0625,-2.0625,-4.3125,0.0625,1.375,-1.125,-3.125,-2.875,2.3125,1.8125,0.375,-4.6875,0.75,0.875,1.5,-2.875,-2.4375,0.125,-2.875,-2.5,-4.3125,0.875,2.25,-3.1875,-3.1875,-4.125,-0.9375,0,-1.8125,-4.5625,-3.5625,-0.6875,-3.75,-11.25,-16.25,-14.0625,-9.625,-10.75,-11.6875,-13.3125,-11.8125,-7,-8.3125,-6.25,-4.0625,-3.3125,-2.25,-2.3125,-4.4375,-2.625,-1.1875,-0.8125,0.125,-3.6875,-6.4375,-2.3125,1.125,2.6875,0.75,2.3125,-0.9375,-0.6875,-1.5625,1.6875,-0.6875,-4.6875,-7.6875,-5.1875,-2.9375,-2.5625,-4.4375,-3.4375,-3.25,-3.3125,-1.3125,-0.1875,2.0625,0,-2,-1.9375,-1.5625,0.1875,1.9375,-0.0625,-0.875,-2.0625,-2.9375,-1.5625,,,,,,,,,,,,,,,,,,,,,,,,,,,,,,,,,,,,,,,,,,,,,,,,,,,,,,,,,,,,,,,,,,,,,,,,,,,,,,,,,,,,,,,,,,,,,,
fist,2,2,-2.6875,-1.75,-0.5,-0.125,1.125,2.875,-0.1875,-5.25,-4.625,-4.1875,-2.1875,-0.125,2.25,3.625,2.3125,-4,-4.75,-0.25,-2.125,5.875,6.8125,2.5,3.875,5.25,7.75,4.4375,-0.875,9.25,8.3125,11.4375,5,3.5625,5.5625,7.3125,8.9375,5.375,5.25,7.375,5.625,4.9375,5.1875,1.5625,4.375,3.375,4.6875,3.9375,1.6875,5.5,6.6875,3,-2.8125,-6.875,-2.375,1.3125,0.5625,0.4375,3.5,-0.6875,-3.9375,-8.25,-1.25,3.75,4.375,-1.125,-2.9375,1.3125,2.25,-1.8125,0.125,0.75,-1.0625,-1.875,-1.9375,-1.25,-2.5,-1.8125,0.0625,-2.25,-1.75,-1.4375,-4.6875,-5.1875,-4.75,-4.4375,-1.5625,1.875,1,2.0625,-2.3125,-0.75,1.3125,-1,-2.4375,2.125,-0.9375,-1.75,-2.125,-5.875,-0.5625,4.4375,4.4375,-3,0.8125,-2.6875,-7.5625,-16.1875,-20.625,-16.6875,-17.3125,-10.125,-1.875,-1.9375,-4.9375,-7.125,-5.375,-3,1.125,2.375,-4.6875,-4.3125,-0.6875,0.125,1,0.6875,0.125,-2.375,-7.25,-6.6875,-3.9375,4.625,1.5,-4.0625,-2.5,-3.25,-0.5,1.0625,-6.9375,-6.375,-5.5625,-1.0625,-1.8125,-2.25,-1.875,2.5,3,0.75,-0.25,-1.875,-1.25,-1.6875,-1.9375,-1.25,,,,,,,,,,,,,,,,,,,,,,,,,,,,,,,,,,,,,,,,,,,,,,,,,,,,,,,,,,,,,,,,,,,,,,,,,,,,,,,,,,,,,,,,,,
fist,2,3,0.3125,-0.625,-0.125,-1.75,-1.75,-2.1875,-2.9375,-1.625,-1.6875,-1.1875,-1.5,-0.3125,0.625,3.625,5.5625,12.3125,9.1875,3,2.375,3,-4.875,0.1875,8.4375,12.125,18.625,7.3125,2.25,0.75,-1.5625,5.25,14,6.9375,7.4375,1.375,-0.75,5,10.0625,10.6875,5.5625,-0.625,4.875,6.4375,6.9375,3.125,4.375,7.3125,-0.1875,-6.5,-3.25,1.1875,0.875,-5.3125,-6.1875,-2.3125,0.375,-6.375,-11.4375,-2.5,3.0625,0.6875,-0.4375,1.875,2.875,1.125,0.6875,-0.4375,-1.125,1.75,5.0625,0.6875,-1.0625,1.5,6.3125,3.5625,0.75,-1.8125,-5.75,-6.5625,-3.4375,-5.25,-3.375,-3,-9.125,-6.5,0.3125,0.625,-0.1875,-2.5625,-2.625,-0.25,-2.5,-0.9375,0.25,4.125,-2.5,-3.25,-0.5,2.0625,4.5625,4.875,-5.8125,-3.625,-1.25,2.25,3.875,4.4375,-3.6875,-7.3125,-2.375,-2.5625,-7.625,-13.9375,-15.3125,-13.8125,-7.625,-7.875,-6.8125,-8.0625,-8.3125,-7.375,-2.9375,6.0625,4.9375,-3.3125,-9.0625,-8.4375,-5.625,-3.75,0.625,-4.8125,-9.1875,-5.6875,0.4375,0.125,-4.25,-4,-4.625,-4.4375,-2.625,-3.8125,-3.25,-2.25,-1,0.25,0.875,3.3125,3.5625,2,3.1875,3.3125,,,,,,,,,,,,,,,,,,,,,,,,,,,,,,,,,,,,,,,,,,,,,,,,,,,,,,,,,,,,,,,,,,,,,,,,,,,,,,,,,,,,,,,,,,,,
fist,2,4,-1.5,-4.0625,-4.6875,-5.125,-4.375,-4.1875,-4.25,-5.875,-5.5,-4.3125,-1.375,0.75,0.6875,2.5,-0.3125,1.375,5,6.3125,1.6875,-1.9375,-2.625,-1.8125,0.0625,1.3125,-0.375,-0.8125,0.4375,6.1875,7.75,12,3.5625,14,19.5,10.8125,12.1875,13.3125,11.8125,9.625,12.9375,20.0625,15.0625,6.5625,5.625,7.625,12,12.125,10.3125,6.375,5.125,8.9375,9.0625,5.6875,1.0625,3.5,2.25,6.8125,8.3125,4.9375,3.25,0.0625,1.3125,1.5,-1.625,-3.4375,-2.625,1.5625,1.8125,2.375,0.0625,-3.8125,-1.8125,-4.25,-2.5625,-4.3125,-5.125,-7.5,-1.4375,-1.875,-4.9375,-2.125,1,0,-2.8125,-4,-2.5,-3,-4.9375,-10.875,-13.8125,-4,-2.375,-1.5625,-4.9375,-9.875,-11.25,-23.375,-32.5,-8.8125,8.125,7.3125,-10.125,-7.625,1.5625,-6.875,-2.9375,5.25,11.375,12.375,7.875,8.75,8.4375,9.1875,4.3125,-19.125,-19.5625,-13.5,-5.5625,-7.125,-9.6875,-17.875,-13.3125,-7.875,-3,-2.375,-6.9375,-8.9375,-6.3125,-4.875,4.125,6.5,2.3125,5.0625,2.375,-1.875,-4.5625,-3.75,1.6875,0.25,-2.875,-3.3125,1.5,-1.375,-3.4375,-4.4375,0.5625,-4.125,-6.75,-8.75,-8.3125,-5.1875,-0.3125,2.4375,3,-2.875,-2.9375,-3.875,-2.0625,-2.6875,0.0625,-1.8125,-2.1875,0.3125,0.4375,0.9375,,,,,,,,,,,,,,,,,,,,,,,,,,,,,,,,,,,,,,,,,,,,,,,,,,,,,,,,,,,,,,,,,,,,,,,,,,,,,,
fist,2,5,1.4375,3.8125,1.1875,-1.9375,-0.875,1.6875,-0.1875,1.125,1.375,-1,-1.1875,0.875,0.25,-1.125,-0.625,0.3125,0.4375,1.0625,-0.0625,-2.0625,-2.25,-1.375,-1.0625,-0.375,-1.125,-0.75,1.0625,-0.4375,1.375,4.9375,10,14.9375,14,12.375,6.6875,9,13.25,4.4375,7.125,12.125,7.125,10,4.8125,-1.125,5.0625,10.375,5.9375,3.375,3.8125,1.5625,2.125,-0.5,-3.3125,-1.875,-3.6875,-20.0625,-42,-51.3125,-37.625,-29,-29,-29,5.9375,-27.875,-29.875,-28.75,-13.75,-7.4375,-4.9375,-4.0625,-5.0625,-3.375,-7.125,-12.375,2.875,9,3.625,-4.5625,0.3125,3.25,5.3125,4.25,0.3125,0.9375,5.0625,6.0625,4.125,2.5625,0.0625,2.5625,-2.5,-6.75,-11.25,-6.8125,3.3125,4.6875,0.75,1.8125,4,2.125,1.9375,4.5625,5.9375,-15.625,-22.625,-2.5625,8,7.875,2.75,-1.8125,-1.3125,3.75,5.0625,10.25,10.375,2.25,8.5625,10.75,7.25,3.625,6,14.5,5.875,2.375,6.9375,5.0625,2.1875,-1.5625,-0.625,7.5625,5.8125,-0.75,-4.6875,-2.875,1.375,2.125,-3.875,-5.5,-2.5,4.125,1.75,-1.875,-5.125,-2.25,-1.1875,-3.75,,,,,,,,,,,,,,,,,,,,,,,,,,,,,,,,,,,,,,,,,,,,,,,,,,,,,,,,,,,,,,,,,,,,,,,,,,,,,,,,,,,,,,,,,,,,,,,,
fist,2,6,0.1875,1.75,0.4375,-3.3125,-3.5,-1.1875,3.1875,3.3125,-1.375,-4.4375,-4.375,-1.75,-1.25,-3.3125,-3.3125,-3.375,-1.875,2.4375,2.9375,0.375,-1.875,-1.375,2.75,0.5625,-1.0625,7.4375,9.1875,23.8125,23.5625,12.6875,1.375,1.1875,1.5,5.5625,11.4375,3.75,-1.4375,0.9375,2.9375,5.9375,3.6875,1.5,4.4375,5,1.75,-0.5625,-0.3125,7.1875,21.875,18.4375,3.875,-4.6875,1.5,8.5625,6.6875,-3.625,-4.625,5.5625,4.4375,1.5625,-2.0625,-2.9375,0.75,-4.0625,-6.4375,-4.5625,-2,-0.25,0.75,-2.5,-3.375,-2.875,-4.875,-2.9375,-4.9375,-2.9375,-1,-3.5625,-13.75,-16.0625,-12.5625,-8.875,-5.5,-3.9375,-1.875,-1.4375,-5.8125,-9.9375,-9.0625,-10.375,-5.5,-6.375,-6.5625,-7,-0.9375,2.5,0.875,-1.5625,2.1875,4.5625,4.5,2.9375,-0.6875,-6.0625,-2.875,-2.1875,0.4375,-1.8125,-3.3125,-5.25,-4.9375,-3.125,-3.875,-2.5,-2.875,-5.0625,-3.8125,-8.25,-3.25,-0.8125,2.25,-0.125,-4.625,,,,,,,,,,,,,,,,,,,,,,,,,,,,,,,,,,,,,,,,,,,,,,,,,,,,,,,,,,,,,,,,,,,,,,,,,,,,,,,,,,,,,,,,,,,,,,,,,,,,,,,,,,,,,,,,,,,,,,,
fist,2,7,-0.4375,-1.0625,-0.3125,-0.625,-0.4375,-1.1875,-2,-1.125,-1.5625,-2.375,-1.375,-1.0625,-0.5,-1.75,-2.5625,-2.8125,-1.8125,-1.9375,-1.875,-2.8125,-1.5,-1.0625,1.1875,0.375,2.125,4.125,10.1875,2.8125,3.5625,2.6875,1.8125,1.1875,3.375,18.6875,18.8125,10.75,6.4375,6.3125,3.5,10.8125,14.25,6.5,5.5,5.3125,3.375,2.8125,4.625,3.9375,-0.5625,0.75,3.9375,4.3125,4.75,1.5625,1,2.25,2.5,2.5625,-2,-4.75,-7.0625,-4,2.875,0.5,-3.8125,-4.3125,2.75,4.125,-2,-5.1875,-2.1875,-0.5,-0.875,0.4375,1.4375,-3.25,-3.9375,1.5625,5.8125,3.625,6.0625,4.6875,3.5,1.625,5.0625,7.375,0.9375,-3.4375,-0.8125,0.8125,-2.9375,-6.5,-3.0625,-0.375,2.625,-8.5625,-4.625,-5.9375,-5.6875,-6.625,-11.3125,-7.25,-3.25,-5.875,-10.1875,-18.75,-24.125,-21.375,-17.3125,-16.625,-8.625,-7.4375,-3,0.6875,-1.5,-0.8125,-5.4375,-8.25,-10.9375,-8.125,-9.1875,-3.875,-3.375,-2.0625,-4.8125,0.625,3.25,5.375,5.875,1.8125,1.125,-1.9375,-7.875,-1.9375,-1.4375,-0.9375,-0.25,-0.9375,-3.25,-2.4375,-3.8125,-2.5,-0.0625,,,,,,,,,,,,,,,,,,,,,,,,,,,,,,,,,,,,,,,,,,,,,,,,,,,,,,,,,,,,,,,,,,,,,,,,,,,,,,,,,,,,,,,,,,,,,,,,,,,
fist,2,8,-2,-3.25,-1.75,-0.1875,-1.25,-1.25,-0.1875,0.125,-1.0625,-1.25,-1.3125,-0.9375,-1.625,0.0625,2.375,0.625,-4.0625,-2.375,-3.625,7.5625,5.0625,-4.4375,-3.125,-0.8125,5.5,4.1875,0.3125,-2.375,1.5625,3.375,7,13.875,11.5,6.9375,5.5,11,10.125,16,17.375,9.125,12.875,15.25,23.4375,29.375,17.5,4.4375,10.5625,10.25,9.9375,1.6875,-4.5625,-6.375,0.0625,3,3.25,-6.625,-11,-6.8125,-7.375,-13,-25.8125,-13.125,0,-1.6875,-8.9375,-11.625,-7.3125,0.25,-4.1875,-7.9375,-13.875,-13.875,-14.4375,-36.375,-36,-8.3125,1.4375,-7.875,-16.0625,-9.25,-0.75,-2.25,-6.5,-8.5,-4.6875,-3.6875,-2.625,-7.375,-6.8125,-3.3125,1.25,8.3125,8.8125,5.1875,-0.4375,-0.25,5,4.25,-0.9375,-7.375,-4.4375,0.6875,5,4.25,1.25,-0.4375,-5.5,-7.125,5.25,13.75,13.0625,5.3125,-0.5625,-2.25,3.4375,4.25,2.125,-4.5,-10.375,-9.9375,-3.375,0.125,-2.375,-4.375,-6,,,,,,,,,,,,,,,,,,,,,,,,,,,,,,,,,,,,,,,,,,,,,,,,,,,,,,,,,,,,,,,,,,,,,,,,,,,,,,,,,,,,,,,,,,,,,,,,,,,,,,,,,,,,,,,,,,,,,
fist,2,9,8.75,6.875,8.125,8.875,12.25,10.5,8.5625,9.25,9.5625,7.3125,4.75,-0.375,-4.3125,-7.75,-7.125,-8.375,-7.75,-7.5625,-5.125,-0.75,0.3125,2.75,3.125,4,3.25,-0.625,-1.4375,-3.9375,-4.375,-4.0625,-5.4375,-3.6875,-1.8125,-0.5,0.6875,-1.875,-0.875,-0.9375,2.5625,9.3125,9.125,24.25,40.875,16.3125,-14.25,-21.625,-5.375,-9.3125,-7.25,-7.625,-7.8125,-3.5,4.75,12.5625,19.375,6.9375,-0.4375,4.3125,8.0625,11.5625,12.5625,11.5625,6.0625,6.5625,8.375,6.375,0.0625,-5.5625,-8.3125,1.8125,7.3125,7.875,1.6875,-1,3.4375,6.3125,1,-6.875,0.3125,5.25,-0.375,-5.0625,-0.8125,4.3125,0.875,-0.6875,-1.875,-3.8125,-3,-2.125,2.6875,4.6875,-3.375,-2.625,-3.5,-8.5,-5.8125,1.25,2.4375,-4.4375,-5.0625,-1.125,2.3125,1.3125,-0.625,-1.5,1.1875,3.6875,2.375,2.625,-10.6875,-19.5625,-11.5625,-7.25,-5.875,-6.6875,-5.625,-4.875,-4.3125,-4.4375,-7.1875,-4.125,-5.6875,-4.125,-11.375,-13,-11,-7,-5.0625,-5.4375,-9.1875,-8.9375,-2.1875,-4.5625,-3.1875,-3.9375,-3.5,-4.0625,-2.125,0.625,1.125,-1.9375,-3.9375,-0.875,4.9375,0.125,-7.375,9.6875,,,,,,,,,,,,,,,,,,,,,,,,,,,,,,,,,,,,,,,,,,,,,,,,,,,,,,,,,,,,,,,,,,,,,,,,,,,,,,,,,,,,,,,,,,,,,,
fingersSpread,2,0,0.4375,-0.5625,-1.625,-1.5625,-1.5625,-1.625,-0.9375,-0.4375,-0.5,-1.9375,-1.5625,-1,-0.875,0,-0.625,-0.9375,-0.75,-0.75,-0.625,-1.5,-0.8125,0.75,10.5,24.9375,31.9375,29.625,15,-35.0625,-22.6875,2.1875,31.0625,30.4375,6.125,0.4375,1.125,8.1875,10.3125,9.625,7,6.25,2.625,6.5625,3.875,-3.4375,-6.4375,-3.375,3,2.5,2.875,2.875,1.5625,-2.875,-1.875,-1.125,0.1875,-12.5,-11.375,-9.8125,4.125,-1.8125,-7.3125,-4.5,-2.6875,-3.375,-8.125,-3.25,5.375,2.875,-7.25,-9.125,-1.9375,0.8125,1.375,-6.25,-9.0625,-26.5,-21.4375,-13.75,6.5625,3.4375,5.1875,-9.5,-22.4375,-7.875,2.25,10.875,5.875,-5.75,-9.375,-8.1875,-7.125,0.3125,-1.25,0.6875,-9,-8.9375,2.125,5.75,3.625,5.625,5.125,2.3125,-0.125,-4.875,-4.0625,-5.3125,,,,,,,,,,,,,,,,,,,,,,,,,,,,,,,,,,,,,,,,,,,,,,,,,,,,,,,,,,,,,,,,,,,,,,,,,,,,,,,,,,,,,,,,,,,,,,,,,,,,,,,,,,,,,,,,,,,,,,,,,,,,,,,,,,,,,,,,
fingersSpread,2,1,-0.4375,-0.8125,-1.875,-2.3125,-1.9375,-1.25,-1.625,-1.75,-1.1875,-0.8125,0.4375,2.8125,5.25,5.4375,4.6875,4.4375,3.9375,3.3125,3.25,4.875,5.125,-0.625,1.8125,-2.0625,-4.5,-12.6875,-6.125,3.125,-1.625,0.0625,-1.1875,0.0625,5.25,6.5625,8.125,8.625,7.5,11,5.5625,5.625,6.1875,2.5,3.625,-0.125,-2.5,-2.375,-1.5,2.125,3.0625,5.625,1.3125,3.6875,3.75,6.0625,5.4375,-4.9375,-9.0625,-8.875,-3,2.125,0.6875,-6,-6,-0.5625,3.1875,-0.9375,-6.1875,-3.8125,2.0625,-0.5625,-4.5625,-4.1875,-0.875,-1.875,-0.1875,-3.5625,-5.125,-7.75,-7.875,-9.5625,-14.125,-12.0625,-12.5,-13.9375,-11.9375,-19.6875,-9.0625,-0.0625,5.1875,8.375,3.375,-16.375,-22.875,-7.5625,1.9375,6.9375,2.5625,-4.9375,-5.25,-0.3125,0.75,-1.125,1.125,3.8125,1.9375,-1.8125,-1.4375,0.375,0.875,-0.875,-5,-5.75,-6.4375,-5.3125,-4.8125,-2.8125,-0.6875,0.5,2,1.75,1.625,,,,,,,,,,,,,,,,,,,,,,,,,,,,,,,,,,,,,,,,,,,,,,,,,,,,,,,,,,,,,,,,,,,,,,,,,,,,,,,,,,,,,,,,,,,,,,,,,,,,,,,,,,,,,,,,,,,,,,,,,
fingersSpread,2,2,0.75,1.375,0.75,-0.0625,-0.8125,-1,0,1.125,1.25,0.8125,0.5625,0.1875,0.8125,0.5,0.3125,1.5,2,1.9375,0.3125,0.375,-1.6875,2,8.9375,13.375,11.75,9.125,-0.9375,-12.1875,-13.5625,-9.6875,-2.75,0.3125,-3.0625,-1.5,1.5,0.75,-0.4375,0.0625,1.75,12.625,15.75,14.8125,10.625,10.75,9.5625,5.5,-4.4375,-8.375,-2.125,6.4375,1.1875,-0.75,2.0625,6.875,5.5625,3.0625,1.0625,-2.0625,6.875,6.625,-1.3125,2.25,13.3125,2.8125,-13.25,-16.1875,0.9375,2,-1.75,-7.3125,-6.8125,-8.75,-12.5625,-12.9375,-10.9375,-11.625,-9.0625,-4.4375,-8.875,-18.125,-21.9375,-15.0625,-10.375,-6.6875,-3.5625,-6.3125,-0.125,0.1875,7,9.75,8.0625,4.75,0.1875,-0.8125,3.6875,7.1875,8.9375,8.9375,4.75,-1.875,-2.8125,-1.625,0.375,-0.875,-2.5625,-3.875,-3.5,-0.375,0.5625,1.5,1.375,0.75,0.75,0.125,,,,,,,,,,,,,,,,,,,,,,,,,,,,,,,,,,,,,,,,,,,,,,,,,,,,,,,,,,,,,,,,,,,,,,,,,,,,,,,,,,,,,,,,,,,,,,,,,,,,,,,,,,,,,,,,,,,,,,,,,,,,,,,,
fingersSpread,2,3,-0.125,-0.3125,0.0625,-0.25,-0.625,-0.8125,-0.3125,-0.3125,-0.1875,-1.4375,-1.5,-1.1875,-0.3125,-0.3125,-1.25,-0.8125,-1.8125,0.5,9.8125,13.75,16.9375,10.0625,-2.0625,-4.75,-9.375,-11.9375,-4.5625,6.5625,11.5625,0.125,-3.25,-6.25,4.625,19.875,17.875,9.25,11.9375,6.8125,8.25,5.0625,-0.25,-3.9375,-2.25,2.6875,6.4375,3.0625,1.125,5.5625,2.625,-2,-3.125,-2,1.8125,-1.375,-2.5,1.25,5.125,5.75,-0.3125,-3.875,3.375,4,-6.0625,-6.625,-0.3125,1.5,-1.5,-3,-2.0625,-4.4375,-5.4375,-2.875,-2.3125,-4.5,-6.6875,-8.5,-8.5,-5.1875,-5.875,-11.6875,-16.0625,-25.9375,-17.5,-9.9375,-5,-7.0625,-13.25,-15,-9.375,-6.875,-5.1875,-1.9375,-0.0625,-3.0625,-3.8125,-1.125,5.5,5.9375,-0.375,-1,1.75,5.125,6.375,4,-0.375,0.125,3.9375,5,,,,,,,,,,,,,,,,,,,,,,,,,,,,,,,,,,,,,,,,,,,,,,,,,,,,,,,,,,,,,,,,,,,,,,,,,,,,,,,,,,,,,,,,,,,,,,,,,,,,,,,,,,,,,,,,,,,,,,,,,,,,,,,,,,,,,,
fingersSpread,2,4,0.4375,1.375,1.9375,1.8125,0.0625,-0.0625,0.0625,0.375,0.0625,-1,-0.3125,1.875,9.125,12.375,23.3125,28.75,-10.1875,-54.75,-29.875,13.75,27.375,13.4375,3.625,-0.5625,-1.875,-0.875,2.0625,9.5,9.3125,0.3125,-3.625,-2.5,2,1.8125,3.25,1.75,3.4375,3.875,3.375,1.9375,4.5625,5.5625,7.625,4.5,3.3125,3.625,2.3125,3.875,-1.3125,-9.125,-7.6875,-0.0625,2.125,-2.125,-6.375,-2.5625,1.5,-3.4375,-7.125,-8.75,-2.6875,2,-3.875,-5.125,-5.75,-1.125,-2.1875,-4.9375,-8.3125,-7,-4,-2.0625,-0.9375,-1.25,0,2.1875,2.4375,9.375,18.1875,6.125,-3.4375,3.75,8.125,0.6875,-9.1875,-3.5625,3.375,-0.875,-7.4375,-8.25,1.25,1.6875,-2.625,-5.875,-0.6875,3.3125,2.25,-5.3125,-5.875,-6.4375,-7.9375,-8.6875,-8.1875,-8.8125,-16.6875,-25.75,-21.875,-11.375,-0.9375,10.25,12.6875,18.6875,1.5,-13.9375,-5.375,3.8125,9.9375,5.8125,-6.8125,-12.5,-6.25,1.9375,5.9375,1.1875,-3,-5,1.375,4.375,4.125,-2.1875,-2.75,-1.125,1.3125,-1.125,-3.5,-6.6875,-3.8125,-0.4375,2.4375,3.75,2.75,2.875,2.75,7,,,,,,,,,,,,,,,,,,,,,,,,,,,,,,,,,,,,,,,,,,,,,,,,,,,,,,,,,,,,,,,,,,,,,,,,,,,,,,,,,,,,,,,,,,,,,,,,,,
fingersSpread,2,5,-1.1875,-1.9375,-2.8125,-7.0625,-11.5625,-13.6875,-13.125,-10.375,-5,-0.0625,2.3125,4.625,8.5625,11.5625,9.9375,14.0625,3.5,-7.9375,-4.5,0.75,4.0625,5.0625,3.3125,4.75,7.3125,5.9375,6.25,8.5625,12.1875,10.6875,9,-3,-23.8125,3.1875,10.5,9.125,13.0625,2.625,-3.875,-4.4375,7.25,8.3125,2.0625,-5.875,-7.0625,-2,-0.5,-3.4375,-5.875,-9.625,-7.125,-7.25,-12.8125,-7.875,-1.6875,1.0625,-1.5,-5.75,3.375,6.6875,7.125,4.125,6.6875,6.8125,7.25,4.75,-2.6875,-4.25,2.4375,7.25,6.8125,7.125,-1.5625,0.25,7.75,9.4375,0.875,-5.6875,-0.5,7.3125,6.125,-5.5625,-12.625,0.25,5.6875,-2.75,-14,-5.3125,12.9375,9.6875,-8.25,-9.375,6.5,9.0625,-7.5,-35.25,-34.4375,-15.0625,13.625,11.875,-6.5,-29.875,-18.3125,-10.625,0.0625,3.6875,0.25,3.6875,5.9375,3,4.125,6.9375,5.1875,7,3.625,-1.6875,-2.8125,-0.75,-2.8125,-7,-13.8125,-18.5625,-16.8125,-12.9375,-8.1875,-3.625,3.1875,4.3125,3.8125,,,,,,,,,,,,,,,,,,,,,,,,,,,,,,,,,,,,,,,,,,,,,,,,,,,,,,,,,,,,,,,,,,,,,,,,,,,,,,,,,,,,,,,,,,,,,,,,,,,,,,,,,,,,,,,,,
fingersSpread,2,6,-14.875,-14.125,-13.5,-12.875,-13.0625,-11.5625,-9.375,-7.625,-5.25,-4.625,-4.5,-3.125,-2,-2.75,-0.8125,-1.375,-1.875,-0.4375,-1.875,1.125,3.4375,4.8125,3.4375,2.375,4.4375,5.3125,13.3125,12.4375,3.6875,-0.375,-4.3125,2.25,2.8125,3.0625,3.25,-2.3125,-12.1875,-4.25,6.1875,13.25,15.3125,21.625,22.625,18.5,11.1875,8.5625,9.5625,10,6.1875,-0.5,-0.5625,2.4375,8.125,6.3125,0.625,-5.9375,-8.375,-12.6875,-8.625,-2,-3.9375,-14.375,-9.9375,-0.375,1.4375,-4.5,-5.625,1.1875,4.0625,4.1875,-2.0625,-0.4375,1.8125,2.0625,0.8125,-1.6875,1.1875,1.125,-1.4375,-0.5625,4.875,5.4375,0.3125,-6.6875,-1.4375,0.8125,-3.5625,-14,-12.875,3.25,8.8125,10.0625,-8.8125,-13.75,-3,5.9375,3,-13.8125,-20.25,-16.1875,-10.8125,-5.8125,-9.5,-13.375,-12.6875,-16.1875,-15.9375,-14.625,-9.75,-0.0625,-11.6875,-5.25,-7.625,-9.125,-10.4375,-9.4375,-5.6875,-1.75,3.1875,7,5.875,1.875,3.125,3.1875,0.1875,-4.375,-6.75,-2.9375,1.9375,3.0625,0.5,-3.125,-4.625,-4.0625,-3.875,,,,,,,,,,,,,,,,,,,,,,,,,,,,,,,,,,,,,,,,,,,,,,,,,,,,,,,,,,,,,,,,,,,,,,,,,,,,,,,,,,,,,,,,,,,,,,,,,,,,,,,,,,,
fingersSpread,2,7,5.375,3,1.5,4.1875,4,4.5625,2.75,0.8125,2.3125,2.375,0.75,-1.625,-3.625,-3,-3,0.75,2,4.875,1.25,-1,-0.8125,-0.375,2,3.75,0.5,-1.75,-1.0625,1.125,3.125,1.125,0.5625,4.125,9.4375,5.375,8.5625,17.4375,18.8125,12.375,-3.0625,-7.75,3.625,13.3125,18.9375,7.3125,5.75,7.25,13.375,0.875,1.75,-1.1875,-16.75,-4,-1.6875,0.9375,3.375,-4.3125,-4.0625,-1.9375,1.125,1.125,-1.8125,-8.875,-6.625,-4.25,2.625,6.875,3.4375,3.625,0.625,6.1875,9.3125,6.1875,3.75,-0.5,-6.625,-5.875,-1,17.4375,26.8125,20.25,2.25,-11.875,-9.0625,11.6875,24.6875,12.875,-3.9375,-8.25,6,17.0625,3.8125,-13.25,-18.875,-0.75,3.25,-11.375,-30.875,-46.3125,-42.625,-20.25,-0.125,-1.0625,-20.0625,-26,-12.5625,-6.125,-11.0625,-9.3125,-3.875,1.9375,-0.3125,-7.0625,-7,-3.8125,-0.0625,-1.9375,3.125,6.4375,16.125,11.0625,0.375,2.5625,5.625,14.5,13.75,2.9375,-11.5,-14.125,-1.875,12.8125,23.3125,24.75,14.9375,1.5625,-5.0625,-7.625,-7,,,,,,,,,,,,,,,,,,,,,,,,,,,,,,,,,,,,,,,,,,,,,,,,,,,,,,,,,,,,,,,,,,,,,,,,,,,,,,,,,,,,,,,,,,,,,,,,,,,,,,,,,
fingersSpread,2,8,1.5625,1.125,-0.375,-1.8125,-1.4375,-1.4375,-0.8125,0.5,0.4375,-0.4375,-1.5625,-1.9375,-1.0625,-1.125,-0.75,-0.4375,1.625,1.5625,1.9375,1.0625,0.9375,2.0625,4.625,3.6875,1.0625,-0.375,-0.125,0.375,-0.25,0,2.8125,15.625,30.75,18.1875,-9.1875,-2.8125,-6.6875,-5.9375,7.875,12.8125,6.5,2.25,3.9375,-0.5625,-3.125,-4.8125,-7.5,-9.875,-4,3.875,8.4375,9.125,5.625,-0.625,-8.0625,-10.5625,-7.375,-1.3125,4.0625,6.3125,3.3125,7.5,7.25,3.0625,-2.875,-1.4375,1.9375,7.1875,0.9375,-5.5,-4.75,1.5,3.125,-6.5625,-11.875,-1.6875,4.25,-7.25,-16.6875,-8.25,1.75,-2.1875,-6.4375,-2.375,8.75,8.75,-2.3125,-4.625,-3.5,-3.875,0.5,1.8125,-4.9375,-6.9375,-3.25,1.5625,-1.5,-7.8125,-10.3125,-1.875,-0.6875,-13.4375,-17.875,-12.125,-9.4375,-8.625,-8.5625,-0.375,6.8125,2.1875,-5,-14.5625,-24.125,-23.625,-16.4375,-6.0625,0.625,4.4375,1.25,-4.375,-6.6875,-3.9375,-1.6875,-0.25,0.3125,1.625,6.125,7.9375,3.5625,-4.375,-8.4375,-3.5625,2.5,3.8125,-0.625,-5.6875,-6.6875,-5.25,-0.5625,,,,,,,,,,,,,,,,,,,,,,,,,,,,,,,,,,,,,,,,,,,,,,,,,,,,,,,,,,,,,,,,,,,,,,,,,,,,,,,,,,,,,,,,,,,,,,,,,,,,,,,
fingersSpread,2,9,12,11.25,10.6875,11.0625,11,11.5625,14.875,16.9375,14.25,6.4375,1.3125,-1.125,-3.75,-5.75,-5.625,-5.5625,-5.3125,-6.0625,-7.0625,-7.375,-6.5,-2.375,0.3125,-0.625,-2.3125,-0.375,3,3.125,-0.125,-1.0625,1.4375,3.4375,3.6875,4,3.75,5.5625,3.5625,1.9375,0.75,-1.25,-2.5625,-1.6875,0.1875,1,-0.625,-0.1875,0.75,-1.3125,-0.8125,-0.625,7.375,9.125,13.1875,18.625,11.5,-17.625,-14.6875,-6.3125,2,5.25,0.4375,-1.6875,-6.4375,-7.9375,-6.125,5.6875,9.4375,11.375,8.3125,3.375,3.0625,3.3125,1.625,7.75,16.625,25.5,26.25,16.5,8.3125,2.4375,6,9.5625,3.4375,-0.5625,-0.25,5.375,11.4375,6.75,-1.6875,-0.75,0.1875,-3.375,-22.375,-31,-16.5625,-1.5625,5.9375,-6.0625,-7.3125,2.875,8.6875,1.8125,-4.875,-5.8125,0.75,-0.0625,-3.5625,-7.9375,-7.875,3.5,5.1875,-5.0625,-5.8125,-7.4375,-2.875,-13.625,-10.4375,-6.25,-1.875,-8.125,-19.3125,-21,-7.25,-2.4375,5,4.375,-2.125,-4.75,-0.75,2.25,5.75,3.875,4.0625,10.5625,15.5,11.0625,1.5,-2.625,-2.0625,-0.625,-1.25,-3.3125,-4,-6.5,,,,,,,,,,,,,,,,,,,,,,,,,,,,,,,,,,,,,,,,,,,,,,,,,,,,,,,,,,,,,,,,,,,,,,,,,,,,,,,,,,,,,,,,,,,,,,,,,,
waveOut,2,0,0.6875,-0.9375,-0.4375,-0.6875,-0.5625,0.25,-1.625,0.6875,-0.1875,0.6875,-1,-1.0625,-1,-0.125,0.5625,-0.0625,-0.8125,0.25,0.0625,-0.625,0.3125,-1.1875,-1.375,-0.5625,0.75,8,6.5625,11.4375,10.0625,4.75,1.1875,-10.5,-16.875,-21.4375,-10.125,1.1875,11.9375,14.5,11.4375,7.8125,4,7.125,9.25,14.5625,8.3125,3.25,0.4375,-0.25,4.0625,1.9375,0.1875,1.25,-0.5,0.625,5.5,10.4375,6.5625,0.3125,-2,-6.375,-4.875,-3.1875,3.25,7.25,0.375,-7.3125,-10.8125,0.6875,4.5,0.0625,-6.8125,7.375,-1.125,-14.3125,-32.5,-11.1875,-10.875,-13.6875,-6.5,-34.375,8.1875,1.3125,-12.625,18.875,-10.25,16.375,9.8125,-9.375,10.4375,9.3125,12.6875,14.125,0.875,17.375,24,24.25,11,0.4375,1.9375,12.875,,,,,,,,,,,,,,,,,,,,,,,,,,,,,,,,,,,,,,,,,,,,,,,,,,,,,,,,,,,,,,,,,,,,,,,,,,,,,,,,,,,,,,,,,,,,,,,,,,,,,,,,,,,,,,,,,,,,,,,,,,,,,,,,,,,,,,,,,,,,,,
waveOut,2,1,-0.375,-3.0625,-3.25,-0.75,1.5,4,2,1.25,-1.25,-2.5625,-1.1875,0.625,0.6875,0.3125,-0.125,1.5,3.0625,2.3125,0.75,-3,-4.625,-1.875,5.6875,12.6875,4.75,0.1875,13.625,9.5625,16.25,2.0625,7,10.5,-4.6875,-13.4375,-8.5,4.5625,18.3125,23.125,17.8125,9.875,2.375,1.9375,5.5,3.75,5.4375,11,16.6875,19.75,15.0625,5.4375,-3,4.625,13.75,11.5,-7,-17.875,-21.75,-9.0625,11,11.0625,-0.0625,-13.125,-13.625,-7.0625,-1.375,-9.4375,-13.0625,-11.6875,-7.0625,-4.625,-4.4375,-5.5625,-5.6875,-5.5,-4.625,-3.375,-5.8125,-7.75,-8.125,-12.5625,-11.9375,-3,2.6875,-10.3125,-6.1875,-5.5625,-8,-3.75,8,20.3125,24.5,23,14.125,-0.875,-6.4375,-17.5,-8.8125,0.25,-8.8125,-21.625,-36.4375,-12.875,3.875,-10.0625,-25.4375,-9.375,-29.125,-17.1875,-20.6875,-28.375,-19.1875,8.375,3.5625,-13.75,-32.4375,-23.6875,-6.9375,4.9375,2.5625,,,,,,,,,,,,,,,,,,,,,,,,,,,,,,,,,,,,,,,,,,,,,,,,,,,,,,,,,,,,,,,,,,,,,,,,,,,,,,,,,,,,,,,,,,,,,,,,,,,,,,,,,,,,,,,,,,,,,,,,,,,
waveOut,2,2,-1.6875,-0.875,0.875,-1.5,-1.875,-0.4375,0.0625,2.3125,0.5625,-1.125,-0.75,0.4375,-0.5625,0.6875,1.5,-1.5,-0.4375,-2,-0.4375,1,4.3125,6.9375,2.5,18.8125,26.125,31.1875,54.75,68,50.25,-22.25,-48.1875,-26.875,2.5,11.1875,4.125,-6.5625,-7.8125,-2.3125,9.4375,20.9375,20.0625,7.75,2,-4.5,-2.125,5.3125,9.6875,6.625,-1.5,-3,0.375,2.375,3,8.3125,-4.4375,-11,-6.125,-12.375,-21.3125,-25.625,-17.3125,-13.6875,-12.9375,-12.125,-9.375,-6.25,-0.5625,2.6875,3.8125,-2.25,-8.625,-2.6875,0.4375,3.3125,8.625,6.4375,3.5,-1.4375,-10.6875,-8.5625,-2,-9.75,-14.5,-7.8125,2.625,5.625,-0.125,-8.75,-10.6875,-5.5,-5.25,-12.125,-11.875,-2.3125,6.9375,3.875,-4.6875,-6.1875,-1.6875,-3.3125,-4.4375,11.375,16.25,-7.9375,-16.9375,-30,-21.6875,-20.9375,-28.1875,-0.125,-18.0625,15.8125,16.25,-11.8125,-3.0625,-1.6875,7.75,3.375,-12.625,-17.625,-6.5,3.9375,5.9375,7.375,11.6875,5.875,10.5625,7.75,0.375,-1.875,5.875,,,,,,,,,,,,,,,,,,,,,,,,,,,,,,,,,,,,,,,,,,,,,,,,,,,,,,,,,,,,,,,,,,,,,,,,,,,,,,,,,,,,,,,,,,,,,,,,,,,,,,,,,,,,,,,
waveOut,2,3,1.875,0.875,2.5,2.625,5.5,4.5625,-0.6875,0.1875,2.25,6.0625,3.6875,5.75,1.3125,-3.5625,-4.25,-7.0625,-8.4375,-2.625,1.3125,2.875,2.4375,-0.6875,-2.6875,-1.5,-3.6875,-2.375,-3.125,0.3125,4.3125,9.8125,11,10.6875,11.0625,26.9375,26.3125,15.5,24.6875,14.75,11.25,4.8125,-5.25,10.9375,15,13.1875,4.125,1.4375,3.4375,-1.25,-2.9375,-2.75,-2.625,-1.0625,-6,-8.375,-8.375,-8.5625,-5.5,1,0,-4.4375,0.6875,7.5625,2.5,-2.4375,-2.8125,3.0625,1.6875,-9.25,-9.8125,-12.125,-14.75,-9.5,-4.0625,-2.5,-2.125,-5.1875,-4.6875,-0.1875,-1.125,1.6875,-1.375,-4.125,-2.9375,-4,-1.4375,-0.875,-1.5625,-3.9375,-4.4375,-9.6875,-12.125,2.625,-2.8125,-12.0625,-13.3125,-21.5625,-11,-20.1875,-20.625,-12.0625,-2.875,-1.5625,-6.8125,-4.875,0.375,5.25,6.625,3.75,0.0625,-3.4375,-3.6875,-4.375,-11.25,-20.25,-23.4375,-17.625,-6.8125,1.75,7.4375,6.75,1.8125,-1.75,-5.625,-5.3125,,,,,,,,,,,,,,,,,,,,,,,,,,,,,,,,,,,,,,,,,,,,,,,,,,,,,,,,,,,,,,,,,,,,,,,,,,,,,,,,,,,,,,,,,,,,,,,,,,,,,,,,,,,,,,,,,,,,,,
waveOut,2,4,-0.4375,-0.25,-1,-0.875,-0.3125,-0.75,-0.3125,-0.0625,0.375,-0.8125,0.4375,1.3125,-0.1875,-0.625,-1.3125,1.375,2.25,2.5625,0.375,-2.4375,-3.5625,-2.6875,-1.5625,0.0625,1.125,4.125,3.5,3.625,-0.5,-3.875,-0.375,5.25,6.6875,6.625,0.3125,-2.75,-2.0625,0.25,1.4375,5.875,10.5,4.5625,6.1875,10.5625,9.125,7.125,11.375,5.5,13.75,4.8125,8.0625,3.3125,2.875,4.75,9.9375,13.6875,14.75,10,3.4375,3.1875,3.1875,3.1875,11.375,5.5,8.4375,14.9375,17.125,16.625,9.5,3.125,0.75,7,9.5,-0.3125,-6.25,-0.375,10.8125,7.625,-3.8125,-17.125,-11,0.1875,-0.5,-10.25,-17.4375,-5.1875,6.125,5.9375,-1.875,-9,6.375,-2.3125,-15,-15.3125,-13.9375,-10.5,-1.3125,2.875,0.75,-1.9375,0.375,4.3125,-1.75,-10.25,-11.75,-8.1875,-1,-1.625,-1,-3.9375,-11.8125,-17,-32.6875,-37.875,-24.4375,-21.75,8.5625,10.875,-18.8125,-23.625,-12.875,-16.6875,-26.5625,-34.5625,-29,-12.25,5.875,7.5625,-1.4375,-11.875,-15.8125,-15.3125,-12.25,-6.5,2.375,15.3125,24,20.0625,,,,,,,,,,,,,,,,,,,,,,,,,,,,,,,,,,,,,,,,,,,,,,,,,,,,,,,,,,,,,,,,,,,,,,,,,,,,,,,,,,,,,,,,,,,,,,,,,,,,,,,,
waveOut,2,5,-0.125,-1.9375,-2.1875,-3.0625,-3.375,-3,-4.0625,-2.9375,-2.125,-2.0625,-1.8125,-0.9375,0.3125,0,-0.125,-0.9375,-1.0625,0,1.1875,1,0.1875,0.0625,0,-0.25,-0.625,0.4375,4.8125,6.5625,8.3125,7,8.6875,19.3125,24.5,25.9375,20.1875,9.1875,-7.1875,-9.3125,-7.0625,5.4375,17.25,14.5625,6,1.8125,0.875,10.1875,13.5,11.375,10.75,9.3125,11.9375,10.5625,13.0625,6.1875,2.25,-6.3125,-7.625,-3.8125,-3.5625,-10.25,-12.3125,-8.375,-4.75,-5.625,-5.9375,-38.25,-37.125,3.25,27.125,11.8125,-15.4375,-23.375,-9.1875,-3.875,-11.25,-21.0625,-20.6875,-12,8.5,11.4375,7,-3.375,-4.125,3.5625,1.875,-0.4375,1.1875,2.5,-2.0625,4.1875,10.375,5.75,-0.875,-3.0625,1.5625,3.5,-1.9375,-5.25,-4,-3.4375,-1.9375,-7.75,-6.6875,3.625,-4.5625,-12.1875,-5.3125,6.375,6.1875,-6.0625,-4.4375,-19.1875,-22.875,-4.3125,3.5625,11.6875,4.0625,-15.6875,-11.75,11,17.9375,13.9375,-0.25,-12.4375,-11.3125,-3.4375,9.125,8.1875,,,,,,,,,,,,,,,,,,,,,,,,,,,,,,,,,,,,,,,,,,,,,,,,,,,,,,,,,,,,,,,,,,,,,,,,,,,,,,,,,,,,,,,,,,,,,,,,,,,,,,,,,,,,,,,,,,
waveOut,2,6,-1.9375,-0.75,0.8125,0.6875,0.4375,-0.25,0.375,0.8125,1.4375,0.6875,1.0625,3.5,-0.3125,10.5,16.375,6.625,14.6875,34.25,37.125,13.6875,-1.8125,-12.75,-18.125,-6.0625,-6.8125,-5.5,-4.6875,-1,1,3.5,1.25,1.25,-4.375,-2.375,3,3.375,3.375,5.5,8.75,25.8125,17.125,4.625,-7.1875,-6.625,3.25,11.3125,9.125,-4.6875,-8.8125,1,7.75,6.5,0.375,-6.125,-10.8125,-9.3125,-4.125,-6.25,-14.8125,-22.375,-17.3125,-4.75,1.4375,3.3125,-4.4375,-5.125,-4.5625,1.25,2.875,0.125,0.4375,5.4375,2.0625,-5.25,-11,-2.1875,-0.5,-0.9375,4.1875,16.125,10.9375,-0.0625,-8.0625,-2.75,-2.6875,-8.5,-13,-10.4375,-3.6875,0,-1.5625,-3.125,-5,-2.4375,1.5625,2.5,0.375,-4.75,-3.125,0.1875,3.4375,2.625,-14.875,-21.4375,-15.5625,4.3125,-1.5,-24.3125,-28.25,-17.125,-5.625,3.625,11.6875,19.5625,22.125,13.125,1.1875,-10,-10.375,-11.8125,-7.9375,-9.875,-5.8125,-4.4375,-1.375,4.375,9.1875,8.3125,0.25,-3,2.75,5.9375,5.3125,1.75,-1.5625,-4.75,-4.625,,,,,,,,,,,,,,,,,,,,,,,,,,,,,,,,,,,,,,,,,,,,,,,,,,,,,,,,,,,,,,,,,,,,,,,,,,,,,,,,,,,,,,,,,,,,,,,,,,,,,,,,,
waveOut,2,7,1.375,0.75,-1.9375,-2.1875,0.0625,0.875,1.875,1.0625,1.25,0,0.375,-1.0625,-0.5625,-0.4375,-0.5,0.75,0.625,3.875,2.8125,2.8125,2.6875,5,7.6875,11.1875,10.0625,15.625,16,18,12.8125,9.1875,8,-4.75,-11.9375,2.9375,38.125,35.625,2.6875,-28.6875,-27.75,-12.625,2.6875,16.25,13.5,3.25,-5.25,-4.375,2.6875,12.875,20.9375,18.5,12.75,2.5,-3.3125,-0.4375,3.5,-4.3125,-15.5,-24.625,-14.3125,1.625,9.9375,1.5625,-14.1875,-11.5625,-2.75,3.9375,1.3125,-1.6875,-10.3125,-9.9375,-0.6875,-4.6875,-5.875,2.125,2.875,-7.125,-12.5625,-7.9375,-0.4375,1.125,-9.3125,-12.75,-4.5,-3.625,-10.9375,-14.5625,-8.8125,-2.75,-4.125,-7.875,-12.1875,-8.8125,-1.8125,0.1875,-3.875,-7.5625,-2.125,4.625,4.125,-3.125,-4.4375,-9.375,-4.5625,0.4375,2.3125,-1.75,-6.4375,-1.4375,3.5625,-0.4375,-4.125,-7.3125,-7,1,6.5,8.125,1.6875,-8.125,-8.625,-10,-15.625,-12.25,9.25,-3.25,-11.4375,-13.75,-28.625,13.75,10.375,-9.9375,-10.5,-17.875,-8.5625,21.6875,5.9375,-11.6875,-24.5625,-23.375,-12.625,7.625,13.375,11.9375,-7.6875,-7.0625,1.8125,6.4375,-1.6875,-6.6875,-14,-11.125,0.8125,1.6875,-0.8125,-5.3125,-3.375,3.25,4.5625,3.3125,4.1875,4.6875,,,,,,,,,,,,,,,,,,,,,,,,,,,,,,,,,,,,,,,,,,,,,,,,,,,,,,,,,,,,,,,,,,,,,,,,,,,,,,,,,,
waveOut,2,8,2.75,2,2.25,-2,-2.375,-0.25,2.75,7.9375,4.5,3.125,2.0625,-1.0625,6.8125,3.9375,4.3125,0.75,1.0625,5.9375,2.375,-7.8125,0.125,7.5625,4.125,-2.5,-0.6875,-1.1875,-2.125,4,1.625,5.3125,2.4375,-1,-0.8125,-4.625,-0.9375,4.8125,5.0625,-0.625,-6.75,-9.625,-9,-5.625,1.3125,4.0625,-0.9375,0.1875,1.25,-3.625,-8.8125,-7.125,-7.375,-8.875,-9.75,-7.1875,-2.6875,0,4.625,5.6875,1,-0.625,0.6875,1.5,-1.0625,-3.5,-5.6875,-0.875,1.9375,5.5,-3.3125,-9.9375,-7.375,1.5,1.8125,1.8125,-3.0625,-4.125,-2.0625,2.375,0.9375,-4.375,-0.875,-2.125,-1.3125,-0.875,-1.875,-3.625,-3.3125,-7.625,-11.3125,-11.9375,-13.25,-19.25,-5.875,-3.6875,-10.0625,-15.5,12.3125,29.8125,1.8125,-10.1875,0.6875,-17.375,-1.0625,-8.3125,5.5,11.375,8.625,1.3125,-3.875,1.9375,14.875,18,15.4375,1.375,-13.5625,-15.875,-9,-3.125,-1.5625,-1.4375,-1.1875,1.5,4.25,2.5,-0.875,-3.6875,-2.0625,-0.375,0.0625,1.4375,,,,,,,,,,,,,,,,,,,,,,,,,,,,,,,,,,,,,,,,,,,,,,,,,,,,,,,,,,,,,,,,,,,,,,,,,,,,,,,,,,,,,,,,,,,,,,,,,,,,,,,,,,,,,,,,
waveOut,2,9,0.4375,-1,0.125,-1,-0.875,-1.25,-1.1875,-1.5,-1.8125,-2.125,-1.875,-1.8125,-0.8125,-2.6875,-2.625,-0.625,2.4375,2.875,0.75,0.125,-5.8125,-6.3125,-0.4375,2.25,4.0625,7.5,7.125,7.625,6.5,4.6875,6.4375,3.5,-1.3125,-1,-3.6875,2.5,4.3125,8.0625,9.0625,8.375,3.8125,6.5,2.75,-2.1875,-1.875,1.3125,0.625,-2.875,1.5,2.6875,0.4375,3.625,-1,1.9375,-5.5625,-7.1875,-10.875,-7.6875,4.25,-2.125,-10.4375,-7.0625,-3.875,-3.0625,-4.875,-4.75,-7.4375,-0.3125,1.8125,-3.5,-15.4375,-22.875,-16.4375,-15.4375,-16.5,-19.1875,-20.75,-17.8125,-12.4375,-7.1875,3.4375,7.125,-3,-9.9375,-9.5,-1.9375,-3.0625,-2.625,0.75,10,28.3125,25.4375,12.875,-2.9375,-19.6875,-16.9375,1.6875,3.4375,-10,-19.5,-17.0625,-9.9375,7.125,6.25,-15.0625,-23.875,-13.75,4.6875,13.625,8.125,-12.375,-14,4.9375,12.375,1,-18.3125,-10.125,-2.4375,3.5,5,6.875,8.0625,2.5625,-2.3125,-2.3125,0.25,0.25,-3.0625,14,11.875,12.75,1.25,-10.1875,3.5625,-1.0625,6.5,0,-7.5,-25.125,-36.875,-28.8125,-3.875,17.0625,10.625,7.375,5,6.3125,16.875,22.5,30.25,30.875,26.5,17.4375,4.5,-2.3125,-3.6875,2.375,-1.5625,-5,-9.6875,-13.5625,-9.625,-3.75,4.3125,6.6875,5.9375,3.75,,,,,,,,,,,,,,,,,,,,,,,,,,,,,,,,,,,,,,,,,,,,,,,,,,,,,,,,,,,,,,,,,,,,,,,,,,,
waveIn,2,0,0.3125,-1.25,1.1875,1.6875,-9.1875,-21.9375,-8.9375,4,-4.25,-14.125,-28.5625,-38.875,-14.1875,-13.125,-19.9375,-20.625,-38.1875,-25.5625,-4.9375,8.6875,1.125,-9.6875,-8.125,3.75,8.625,2.625,-1.5625,3.3125,12.6875,13.4375,12.625,5.8125,4.25,5.5,7.125,7.5625,2.3125,-1.9375,2.1875,4.125,-1.9375,-5.75,-4.1875,-2.4375,-0.875,2.3125,2.5,-2.0625,-0.125,3.375,0.75,-7.0625,-8.75,-8.125,-6.0625,-6.9375,-6.25,-1,-4.6875,-2.5625,3.625,3,-2.8125,-4.125,3.8125,2,0.75,-1.4375,-1.8125,0.4375,9.125,7.375,-7.5625,-27.9375,-7.75,5.8125,26.8125,38.9375,26.8125,4.6875,18.4375,39.6875,48.0625,32.3125,-0.3125,-7.75,-17.1875,-6.6875,11.375,15.6875,5.4375,-14.8125,-10.375,-4.9375,-7.9375,-1.0625,-8,-8.625,-12.5625,-2.3125,2.0625,3.4375,-7.1875,-14.5,-9.6875,-0.8125,2.6875,-1.5625,-9,-7.5625,-6.1875,-1.0625,-1.5,-2.875,-4.0625,,,,,,,,,,,,,,,,,,,,,,,,,,,,,,,,,,,,,,,,,,,,,,,,,,,,,,,,,,,,,,,,,,,,,,,,,,,,,,,,,,,,,,,,,,,,,,,,,,,,,,,,,,,,,,,,,,,,,,,,,,,,,,,
waveIn,2,1,2.75,1.125,0.8125,1.875,3.375,3.3125,2,-1.25,-0.9375,-2.0625,-0.75,0.75,2.0625,1.5,2.625,-3.8125,4.625,25,29.875,21.5625,-1.8125,-4,2.125,4.9375,-2.75,-5,-2.375,-10.875,-17.5625,-13.8125,-18.1875,-16.6875,-26.0625,-30.25,-31.625,-31.1875,-15.6875,-3.3125,10.4375,1.4375,-2.375,-11.125,-11.4375,-4.75,-4.9375,-8.375,-2.9375,0.3125,-2.5,0.1875,0.875,-1.375,-4.4375,-8.6875,-9.3125,-9,-8.8125,-8.4375,-6,-2.8125,-4.125,-2.0625,-0.5,0.375,9.3125,11.9375,2.8125,-7,-1.4375,12.75,14.5,-1,-8.375,-2.1875,6,1.1875,-0.5,1.5,2.875,2.25,1.375,0.9375,0.4375,9,15.8125,15,15.8125,-8.75,-14,1.5,-8.25,-20.5625,-6.5,19.4375,38.0625,29.125,-8.0625,-6.25,1.375,18.8125,19.25,3,-7.875,-18.5625,7.25,17.4375,-1.5,-4.375,-2.4375,0.75,-0.4375,-19.8125,-29.875,-18,-3.0625,2.8125,-7.5,-14.5625,-11.4375,0.125,6.4375,-0.75,-4.6875,-3,-2.25,-2.5625,0.5,0.4375,-3.9375,-5.125,-7.875,-12.4375,-11.0625,-7.5,-3.6875,-5.25,-6.5,-7.8125,-8.8125,-8,-2.6875,,,,,,,,,,,,,,,,,,,,,,,,,,,,,,,,,,,,,,,,,,,,,,,,,,,,,,,,,,,,,,,,,,,,,,,,,,,,,,,,,,,,,,,,,,,,,,,,,,,,,
waveIn,2,2,1.8125,0.1875,-1.5625,-1.8125,-1.1875,-2.5625,-3.375,-4.1875,-3.125,-0.625,3.4375,12.9375,-8.0625,-2.25,18.6875,3.6875,-10.75,-39.5625,-65.75,-38.3125,9.1875,17,6.625,-6.625,-11.8125,-5.8125,-0.375,8.8125,12,8.9375,0.625,-0.8125,-1.8125,-4.375,-9.5625,-7.5625,-3.25,-0.25,-3.625,-5.9375,-4.4375,-3.1875,-4.6875,-9.1875,-5.8125,-5.5625,-7,-7.4375,-4.5625,1.4375,3.5625,2.5625,3.375,5.4375,-1.3125,-4.1875,-2.75,0.3125,1.8125,-3.3125,-4.125,2.8125,10.25,10.1875,5.5,2.0625,-2.6875,-1.8125,-4.875,-1.8125,-0.25,3.0625,8.6875,14,5.625,-3.75,-3,6.25,8.75,-0.5625,-6.1875,-10.4375,-4.625,2.75,10.3125,12.125,2.1875,14,20.25,35,31.3125,21.625,5.6875,4.75,22.625,25.5,6.6875,-7.6875,1.0625,10.0625,4.75,7.6875,-2.4375,-11.3125,-16.1875,-7.1875,6.25,7.1875,-2.5625,-19,-16.3125,-4.0625,0.9375,-2.5625,-6.8125,-7.6875,-7.0625,-9.4375,-1.375,-0.0625,-4.9375,-3.5625,-9.4375,,,,,,,,,,,,,,,,,,,,,,,,,,,,,,,,,,,,,,,,,,,,,,,,,,,,,,,,,,,,,,,,,,,,,,,,,,,,,,,,,,,,,,,,,,,,,,,,,,,,,,,,,,,,,,,,,,,,,,,
waveIn,2,3,-10.25,-11.375,-8.375,0.9375,8.625,5.9375,0.3125,0.5,3.9375,5.6875,1.8125,0.625,0.625,2.375,8.75,15.125,18.8125,16.5625,12.25,4.3125,-3.875,-6.25,-22.625,-32.1875,-37.4375,-34.5,-29.0625,-19.3125,-4.25,21.5625,30.75,43.625,58.6875,50.875,34.375,32.25,15.5625,7.6875,9.9375,11.1875,6.875,-1.6875,1.375,13.625,19.75,13.3125,7.625,2.875,2.625,-0.25,-2.0625,0.5625,-4.875,-6.4375,-7.75,-7.0625,-6.375,-4.4375,-4.125,-6.0625,-3.25,-1.8125,-5.375,-8.25,-8.375,-7.25,-8.1875,-8.875,-10.5625,-6,-3.4375,-12.9375,-16.125,-13.8125,-10.625,-2.5625,-6.1875,-10.5625,-4.0625,0.75,1.375,1.375,-1.9375,-0.5625,-2.625,-6.25,-4.625,-6.0625,-8.75,5.5625,-6.5625,3.75,15.8125,8.5625,9.9375,8.4375,12.9375,10.9375,14.375,13.75,7.125,-3.9375,-9.0625,-11.75,-0.625,4.375,-1.4375,-1.1875,0.3125,-7.5,-15.1875,-16.4375,-13.5,-12.25,-11.25,-9.8125,-1.1875,7.5625,8.5625,10.875,,,,,,,,,,,,,,,,,,,,,,,,,,,,,,,,,,,,,,,,,,,,,,,,,,,,,,,,,,,,,,,,,,,,,,,,,,,,,,,,,,,,,,,,,,,,,,,,,,,,,,,,,,,,,,,,,,,,,,,,,,
waveIn,2,4,-2.75,-0.6875,-0.625,-0.625,-2.0625,-8.4375,-12.125,-7.75,-1.5,-1.4375,1.25,-0.25,-4.5,-6.625,-4.0625,0.875,5,1.1875,-4.4375,-1.75,4.8125,3.4375,-1.4375,-4.5,-2.5625,5.75,12.1875,6.625,2.0625,-5.5625,-12.6875,-18.625,-24.4375,-25.3125,-26.625,-22,-13.6875,-3.0625,9.1875,17.9375,19.4375,8.625,8.8125,31.375,36.1875,34.375,35.9375,44.9375,31.25,-3.125,-14.4375,-3.8125,4.5625,16.375,16.5,8.9375,6,-0.75,-10.8125,-12.0625,-3.875,2.3125,-3.375,-6.1875,-4.4375,0.6875,-6.375,-9.75,0.75,7,5.375,3.6875,0.6875,2.6875,3.875,-4.25,-4.75,-4.5625,-1.25,-1.8125,6.3125,11.5625,8.9375,6.9375,6.375,0.3125,-2.8125,-8.8125,-8.0625,-8.0625,-1.6875,1.1875,-2,-4.375,-4.875,0.125,4.0625,1.9375,3.8125,-1.4375,-3.0625,0.625,-5.3125,-4.375,-3.9375,-1.75,-8.625,-3.5625,-4.5,-7.625,-9.1875,-6.125,-2.8125,0,2.625,4.1875,-3.75,-26.25,-23.5,-15,-16.75,-22.75,-23.4375,-14.9375,-11.5625,-2.375,9.125,20.9375,34.1875,46.3125,43.5625,24.0625,3,-16.5625,-16.9375,-11,-9.25,-9.6875,-9.875,-23.3125,-35.5625,-30.875,-17.6875,-12.25,-14.75,-21.375,-19.875,-18.6875,,,,,,,,,,,,,,,,,,,,,,,,,,,,,,,,,,,,,,,,,,,,,,,,,,,,,,,,,,,,,,,,,,,,,,,,,,,,,,,,,,,,,,,,,,,,,,
waveIn,2,5,5.6875,6.4375,9.6875,8.5,8.25,3.375,-0.625,0.75,1.6875,3.8125,3.375,1.6875,-0.3125,-4.375,-5.75,-5.8125,-3.375,0.25,0.75,-0.25,-0.75,1.125,3.6875,3.125,3.1875,2.4375,-1.3125,-4.3125,-5,-8.5625,-9.125,-10.625,-9.5,-9.5625,-7.1875,-5.875,-6.5625,-7.4375,-8.625,-7.8125,-5.5625,-3.1875,1.3125,4.125,5.0625,5.9375,9.3125,7.375,-7.6875,-20.75,-19.25,-24.875,-18.9375,-24.5,-22.3125,-45.625,-26,15.625,39.9375,27.375,5.75,-16.125,-13.375,0.0625,10.0625,7.375,-4.375,-8,5.8125,14.5,4.75,-6.375,-1.875,8.3125,19,12.875,6.1875,3.1875,4.4375,-0.8125,-3.375,-1.0625,1.5,-8.9375,-11.8125,-6.5,-5.1875,-4.75,-5.875,-4.625,0.25,0.5,-4.4375,-11.375,-7.25,1.125,1.75,-13.6875,-24.3125,-17.0625,-8.875,-2.125,-0.625,1.8125,7.3125,10.6875,6.8125,1,2.5625,4.4375,18.8125,30.25,27.125,-1.0625,-9.75,-1.1875,16.5625,28.8125,14.6875,-4.6875,-18.9375,-11.1875,-6,0.75,2.25,-0.8125,-8.0625,-6.25,-6.6875,1,4.1875,-2.1875,-20.875,-39.4375,-33.9375,-21.4375,-9.0625,-8.5625,-19.6875,-14,-7.0625,0.75,0.125,-1.3125,-10.5,-13.375,-11.1875,-7.9375,-7.75,-5.875,-3.9375,,,,,,,,,,,,,,,,,,,,,,,,,,,,,,,,,,,,,,,,,,,,,,,,,,,,,,,,,,,,,,,,,,,,,,,,,,,,,,,,,,,,,,,,,,,
waveIn,2,6,-1.1875,-3.1875,0.4375,1.25,-0.75,-1.75,-3.4375,-1.9375,-0.25,-2,-3.9375,-8.5,-11.3125,-8.9375,-7.3125,-22.125,-26.4375,-25.625,-18.1875,-9,-3.25,-4,-10.0625,-11.875,-12.5,-14.6875,-12.75,0.625,9.5625,15.3125,24.0625,20.875,19.4375,15.875,5.6875,0.0625,6.375,5.8125,9.25,8.4375,11.8125,9,-0.375,-14.5625,-22.875,-35.625,-50.3125,-44.75,-30.9375,-18.5625,-17,-11.125,-3,1.8125,5.875,5.625,5.125,6.875,4,-0.125,-0.75,4.0625,-0.5,-0.8125,5.25,7.5625,5.25,3.125,3.1875,11,5.4375,-0.3125,-4.25,-3.5625,0.375,0.3125,3.25,-6.9375,4.25,7.125,0.9375,-3.25,-0.1875,-0.5625,-6.5625,-3.8125,8.875,2.9375,-14.4375,-9.1875,6.9375,9.5,-7.5,1.75,18.5625,25.875,26.3125,29.9375,31.8125,11.75,5.1875,-10.6875,-11.625,-1.875,6.25,7.25,0.1875,0.1875,1.6875,2.1875,-3.5625,-1.5625,-1,11.1875,16.5,16.0625,4.875,-0.5,2.4375,4.25,7.6875,,,,,,,,,,,,,,,,,,,,,,,,,,,,,,,,,,,,,,,,,,,,,,,,,,,,,,,,,,,,,,,,,,,,,,,,,,,,,,,,,,,,,,,,,,,,,,,,,,,,,,,,,,,,,,,,,,,,,,,,,
waveIn,2,7,-2,-0.9375,1.3125,1.625,1.3125,2.6875,2.75,1.875,1,2.8125,1,-0.875,-4.6875,-5.4375,-2.0625,-0.5625,0.0625,1,0.875,3,7.25,6.75,4.25,0.75,0.75,1.375,1.1875,-0.9375,-1.6875,1.875,6.5,5.875,4,1.5,0.375,1.9375,-0.25,-13.1875,-18.375,-11.3125,3.875,10.375,10.3125,-9.25,9.1875,33.75,41.5,34.0625,7.4375,-6.375,-5.875,-0.3125,9.4375,8.8125,4.75,3.0625,-2.875,-5,-4.3125,-1.6875,0.4375,1.0625,-10.8125,-9.6875,-6.5625,2.0625,10.3125,6.5,6.125,0.8125,-2.1875,2.125,-0.6875,-0.6875,-3.125,-5.1875,-5.4375,-8.1875,-4.5625,-2.4375,-9.6875,-5.625,-2.5625,-2.8125,-3.75,-4.75,1.125,0.0625,-1.25,-6.875,-6.5625,-6.25,-5.5,-5.6875,-0.1875,-8.375,-9.6875,-11.75,-13,-9.875,-13.8125,-15.1875,-13.6875,-15.625,-11.375,-7.375,-0.1875,4.1875,-8.375,-18.0625,-14,4.75,23.3125,39.875,54.0625,58.125,40,16.3125,-20.25,-37.5625,-38.0625,-16.0625,6.8125,16,18.8125,4.5,-15.1875,-13.75,-4.875,7.9375,8.6875,5.4375,-11.125,-11.4375,-5.3125,1.4375,-0.8125,-6.9375,-9.875,-10.625,-11.6875,-5.875,-3.125,-2.0625,-0.125,,,,,,,,,,,,,,,,,,,,,,,,,,,,,,,,,,,,,,,,,,,,,,,,,,,,,,,,,,,,,,,,,,,,,,,,,,,,,,,,,,,,,,,,,,,,,,,,,
waveIn,2,8,-2.1875,-0.8125,-0.625,0.8125,0.25,0.0625,-0.125,-1.5,-0.5625,0.4375,2.5,0.875,-0.5625,-1.1875,0.4375,4.75,8.125,9.875,4.1875,1.6875,-6.3125,-4.1875,-8.9375,-15.3125,-11.3125,-11.875,-1.875,-11.6875,-22.125,-28.3125,-28.0625,-30.625,-13,8.875,20.9375,17,5,-10.625,-8.4375,-1.4375,15.375,20.125,6.4375,-10.5,-17.1875,-12.25,-7.75,1.1875,11.3125,16,7.5,-4.4375,-3.5,5.9375,5.125,-1.6875,-14.5,-17.75,-2.9375,20.4375,20.6875,12.375,5,4.1875,-0.875,-4.0625,4.9375,11.125,13.9375,10.875,13.5,6.25,3.25,4.8125,5.5,3.1875,0.125,3,3.4375,1.8125,-1.4375,-5.9375,-7.5,-1.6875,5.125,0.125,-14.9375,-14.9375,-10.25,-13.625,-8.8125,-15.8125,-21.6875,-7.0625,-19.25,-4.625,15,15.8125,24.0625,28.25,22.0625,46.8125,70.875,59.4375,10.75,-41.75,-65.3125,-58.3125,-39.8125,-10.625,9.5,4.125,-10.375,-22.125,-20.0625,-7.625,4.5625,,,,,,,,,,,,,,,,,,,,,,,,,,,,,,,,,,,,,,,,,,,,,,,,,,,,,,,,,,,,,,,,,,,,,,,,,,,,,,,,,,,,,,,,,,,,,,,,,,,,,,,,,,,,,,,,,,,,,,,,,,,,,
waveIn,2,9,5.6875,-0.8125,-4.4375,-5.625,2.5,5.75,3.6875,-0.75,0.4375,3.75,5.5,2.75,-3.75,-4.9375,-2.0625,2.9375,4.0625,-14.8125,-19.4375,-11.3125,-4.4375,8.0625,-9.1875,-30.6875,-30.25,-7.0625,-6.3125,0.3125,4.5,8.4375,7.75,8.5625,15.0625,26,26,26,-4.4375,50.8125,62.875,49.9375,26.25,12.4375,10.3125,10.6875,5.25,-7.375,-11.6875,-4.6875,1.625,7.5,-4.625,-16.375,-20.125,-4.625,-1.0625,2.0625,-1.1875,-6.0625,8.5625,15.125,19.0625,8.6875,0.875,0.875,7.875,15.3125,8.5625,-0.375,-2,1.75,1.75,-4.4375,-4.625,-3.1875,-1.8125,-4.1875,-7.875,-20,-28,-35.625,-41.5,-38.3125,-34.125,-27.9375,-21.25,-5,20.625,37.875,36.3125,31.25,19.4375,2.1875,-5.6875,-8.8125,-3.8125,1.125,-0.5,5.9375,7.125,13.75,18.375,9.1875,5.375,5.5625,4.25,6.9375,11.4375,4.75,3.5,3.5625,-3,-3.25,-4.875,-5.625,-9.625,-10.6875,-10.625,-3.375,2.6875,7.0625,5.5625,0.1875,-2,,,,,,,,,,,,,,,,,,,,,,,,,,,,,,,,,,,,,,,,,,,,,,,,,,,,,,,,,,,,,,,,,,,,,,,,,,,,,,,,,,,,,,,,,,,,,,,,,,,,,,,,,,,,,,,,,,,,,,,
doubleTap,2,0,0.5,-0.25,0.625,1.125,0.625,-0.125,-0.6875,-0.4375,0.875,0.125,-0.75,-1.0625,-1,-1.9375,-1.5625,-1.25,-1.5,-1.625,-0.6875,-0.5,-1.1875,-0.5,-1.3125,-0.75,-1,-1.75,-2.8125,-3.4375,-2.5625,-1.6875,0.125,1,11.3125,23.5,12.25,8.1875,-9.4375,-5.9375,29.1875,8,-7.125,-8.1875,24.5,30.3125,29.4375,11.125,-14.25,-15.4375,-0.4375,-1.25,-6.6875,-25.4375,-22.4375,-14.1875,-5.5625,-5.875,-10.8125,-11.875,-2.375,1,2.5,-1.3125,-6.6875,-6.25,-5.75,-2.4375,-0.375,-1.125,-0.875,0.125,-1.375,-1.1875,-2.0625,-2.5625,-2.375,-1.3125,0.5,0.625,0.5,-0.9375,-2.5,-3.125,-3.25,-0.8125,-2.75,-1.3125,-2.0625,-1.4375,-0.5625,-0.6875,-0.5,-3,-3.3125,-1.9375,-1.25,0,-0.75,-1.8125,-0.375,-0.875,0.75,-0.25,0.125,0.4375,-1.125,-0.6875,-2.3125,-1.8125,0.25,-1.0625,-0.4375,0.75,0.875,0.625,-0.625,-0.1875,-1.75,-1.6875,-0.625,-1.25,0.1875,0.3125,0.625,-0.125,-1.8125,-1.125,-0.375,0.8125,0.4375,-1.6875,-2.4375,-1.5,-1,-0.375,-1.125,-1.125,-0.1875,0.125,-0.375,-1.375,-1.3125,-0.6875,-0.8125,-0.0625,-0.875,-0.75,-0.5625,0.75,0.75,0.4375,-0.1875,-1.4375,-1.375,-2.6875,-1.5625,-0.9375,-0.75,-0.8125,4.875,17.125,35.625,59.375,31.4375,6.5,-24.1875,-14.5625,12.9375,12.375,3,-12.5625,-16.4375,-16.6875,17.375,32.6875,40,19.8125,3,3.75,13.8125,13.6875,-9.6875,-24.375,-28.1875,-8,-32.3125,-38.125,-12.625,16.625,19,5.1875,-11.1875,-18.0625,-18.9375,-17.125,-13.3125,-7.75,-2.125,-3.875,-9.375,-6.25,-1.625,-2.6875,-0.25,-3.5625,-2.0625,-4.5625,-3.0625,3.0625,1.9375,-4.375,-5.125,-1.3125,-2.3125,-0.6875,-0.25,1.1875,-2.0625,-5.0625,-2.875,-0.125,0,-2.4375,-3.3125,-3.375,-4.25,-0.4375,-2.75,-3.75,-4.4375,-3.0625,1,4.25,6.4375,5.625,2.875,0.3125,0.0625,0,-0.875,-3.625,-4.8125,-5.625
doubleTap,2,1,0.625,-1.875,-2.6875,-3.375,-4.5625,-2.4375,-1,-1.6875,-3.375,-3.1875,-0.6875,0,-0.9375,-1.375,-1.375,-0.125,2,2.6875,1.4375,-0.8125,-2.5,-1.375,-0.25,0.125,0.5,0.125,0,2.1875,6.375,6,1.6875,-1.9375,1.25,3.9375,4.6875,1.1875,1.625,-0.0625,-2.75,-3.4375,-1.375,3.75,8.625,20.1875,21.6875,58.75,44.4375,34.9375,-14.5,-6.125,-5.25,-3.5625,-6.8125,-9.6875,-20.1875,-20.0625,17.625,67.8125,28.75,19.375,-0.375,21.25,19,3.875,-46.8125,-63.6875,-40.25,-53.5,-132.0625,-75.625,18.25,116.8125,79.5,-25.5625,-63.625,-40.5,7.375,21.9375,1.5,-25.4375,-24.875,-10.5625,0.375,3.625,-1.625,-9.75,-14.4375,-6.25,4.875,6.75,-1.875,-5.8125,-2.0625,-0.625,-2.1875,-8.5625,-4.875,-4.4375,-0.25,1.5,-3.5625,-4.5,-1.8125,-1.625,-0.25,-1.1875,-3,-1.3125,-1.1875,,,,,,,,,,,,,,,,,,,,,,,,,,,,,,,,,,,,,,,,,,,,,,,,,,,,,,,,,,,,,,,,,,,,,,,,,,,,,,,,,,,,,,,,,,,,,,,,,,,,,,,,,,,,,,,,,,,,,,,,,,,,,,,,,,,,,
doubleTap,2,2,-2.1875,-1.6875,-3.25,-4.4375,-4.8125,-3.1875,-1.9375,-0.875,-1.1875,-3.125,-6,-3.3125,-1.8125,7.875,9.5625,4.1875,-3.9375,-1.875,3.625,4.75,5.0625,4.8125,2.5625,2.4375,2.375,3.3125,1.625,-1.125,-0.1875,-1.1875,-1.625,-2.4375,-0.625,4.125,6.875,10.1875,8.75,11.1875,3.875,1.6875,8.625,17.625,30.6875,56.5625,42.4375,24.375,-19.0625,-15.6875,-4.875,7.0625,-8.1875,-38.8125,-10,8.3125,64.875,62.75,21.375,-15.6875,1.5625,41.1875,25.125,-6,-44.5625,-88.375,-42.875,1.25,28.25,0.9375,-12.375,-9.4375,-9.3125,-6.0625,-1.25,3.5625,-6.625,-9.9375,-7.0625,-2.1875,-4.0625,-2.5,-0.9375,-5.75,-7,-2,0.875,-0.625,-7,-9.3125,-8.5,-2,-4.375,-2.8125,-0.9375,-2.1875,-5.875,-4.5,-2.0625,0.5,-1.5,-3.5625,-2.625,-2.5,-0.375,-1.6875,-2.4375,-5.25,-3.125,-1.4375,0.125,-0.3125,-3.5,-2.8125,-0.5625,1.4375,-0.25,-1.125,-0.6875,-1.375,-0.0625,-1.75,,,,,,,,,,,,,,,,,,,,,,,,,,,,,,,,,,,,,,,,,,,,,,,,,,,,,,,,,,,,,,,,,,,,,,,,,,,,,,,,,,,,,,,,,,,,,,,,,,,,,,,,,,,,,,,,,,,,,,,,,,
doubleTap,2,3,-0.75,-0.5,-1.875,-1.5,-0.8125,0.375,-0.8125,-1.5625,-1.25,-2.1875,-1.3125,-3,-2.5,-1,-1.5625,-1.4375,-1,-0.3125,-0.4375,0.25,-0.0625,-2.125,-0.8125,-0.8125,0.25,2.0625,-0.8125,-6,-5.625,-2,3.3125,2.875,0.6875,-1.375,-4.625,-5.4375,-2,1.5625,3.125,0.5,-0.3125,2.125,2.9375,1.75,2.6875,1.875,2.4375,4.125,6.25,6.875,5.75,9.625,16.0625,25.125,0.375,-1.125,-20.625,-10.25,17.9375,27.1875,-9,-28.0625,15.4375,53.125,40.875,7,-24.5,-14.4375,-4.1875,-14.875,-48.1875,-56.375,-24,13.75,11.8125,-11.625,-20.875,-9,-0.625,0.8125,-2.5,-4.1875,-3.125,-1.375,0.375,-1.875,-1.625,-2.125,0.0625,-2.3125,-0.5,-1.875,-1.875,-0.0625,-0.375,0.6875,-1.875,-0.875,-0.25,1.625,-1.25,-4,-4.75,-0.5,3.875,1.75,-2.5,-3.9375,-1.375,0.625,-2.5625,0.75,-1.0625,-0.75,-1.375,0.25,-0.6875,0.1875,0.0625,0.1875,0.6875,0.25,0.6875,-0.25,1.3125,-0.8125,,,,,,,,,,,,,,,,,,,,,,,,,,,,,,,,,,,,,,,,,,,,,,,,,,,,,,,,,,,,,,,,,,,,,,,,,,,,,,,,,,,,,,,,,,,,,,,,,,,,,,,,,,,,,,,,,,,,
doubleTap,2,4,-2,-1.75,-0.75,-0.5,-1.375,-2.0625,-1,-0.9375,-0.8125,-1.125,-2.4375,-3.375,-3.25,-2,-1.125,-1,-2.8125,-3.375,-2.6875,-1.625,-1.125,-0.5625,-1.25,-1,-0.3125,-1.3125,-1.8125,-1.1875,0.9375,2.5,2.3125,-0.25,-0.875,-2.75,-3.375,-1.1875,-0.375,1.25,13.625,27.375,53.3125,38.25,37.25,4.375,-25.5625,-17.5,1.5,4.3125,-7.25,12,27.125,28.5625,63.25,9.375,-14.5625,-15.875,-4.875,-15.75,-45.9375,-41.4375,-40.9375,-22.625,-0.625,0.0625,-6.8125,-10,-8.75,-2.625,0,-2,-6.8125,-10.25,-8.6875,-6.5625,-3.125,-2.9375,1.375,0.0625,0.8125,-1.4375,-1.875,-1.1875,1.6875,4.875,3.25,-3,-3.125,-1.3125,-0.8125,-1.5625,-3.75,-4.3125,-5.0625,-3.125,-3.75,-1.8125,-2,-6.625,-5.6875,-6.75,-3.625,-2.5625,-3.0625,-3.625,-3.875,0.375,-0.125,,,,,,,,,,,,,,,,,,,,,,,,,,,,,,,,,,,,,,,,,,,,,,,,,,,,,,,,,,,,,,,,,,,,,,,,,,,,,,,,,,,,,,,,,,,,,,,,,,,,,,,,,,,,,,,,,,,,,,,,,,,,,,,,,,,,,,,
doubleTap,2,6,0.25,0.75,-3.0625,-10.375,-14.875,-15.1875,-10.625,-4.6875,-2.5625,-3.5625,-6.0625,-4.625,-2.5,-2.625,-3.625,-4.1875,-4.5625,-2.125,-0.3125,-0.8125,-2.625,-1.6875,-1.3125,-2.375,-3,-4.4375,-4.5,-3.0625,-2.4375,-1.3125,-1.25,-0.6875,1.125,3.625,1.6875,3.125,0.3125,-2.6875,5,27.9375,44.25,54.3125,29.4375,-11.375,-28.125,-39.75,2.3125,-4.125,-10.125,28,43.5,31.875,33.875,-4.4375,-4.625,-9.5625,-11.1875,-13.1875,-40.3125,-45.5,-25.4375,3.375,18.75,-0.875,-16.75,-16.125,-10.4375,-7,-6.3125,-7.1875,-8.1875,-1.0625,0.125,1.4375,0.0625,-1.125,-2.1875,-0.125,1.0625,1.25,1.5,4,-2.75,-1.125,3.6875,0.125,-4.5625,-5.1875,-0.9375,-4.1875,-0.875,-1.875,0.3125,-0.75,-1.6875,-3.5625,-1.9375,0.1875,-0.3125,-0.875,-2.375,-2.875,-0.8125,-0.125,-0.625,-1.5,-2.1875,-1,0.3125,-0.125,0.75,-0.6875,-3.25,-4.5,-1.4375,-1.5625,-0.0625,-1.9375,-3.3125,-3.9375,-4.375,,,,,,,,,,,,,,,,,,,,,,,,,,,,,,,,,,,,,,,,,,,,,,,,,,,,,,,,,,,,,,,,,,,,,,,,,,,,,,,,,,,,,,,,,,,,,,,,,,,,,,,,,,,,,,,,,,,,,,,,,
doubleTap,2,7,-0.25,0.875,0.625,-1.1875,-1.0625,2.125,5.75,-0.9375,-5.375,-2.9375,0.0625,1.5625,-0.1875,-1.875,-1.75,-2.125,-1.1875,-0.5625,-0.5,-1.3125,-0.875,-0.375,-1.6875,-1.75,-2.1875,-1.1875,-1.6875,-3.1875,-5,-5.8125,-3.1875,0.9375,7.4375,16.8125,25.9375,35.3125,26.1875,3.625,-6.5,-15.25,13.1875,5.5625,-12.5625,-9.5625,23.75,42.5625,55.4375,28.3125,-3.375,-12.5625,-15.75,-14.875,-18.6875,-43.375,-41.125,-28.9375,-8.625,5,-1.3125,-7,-4.875,-9.9375,-13.3125,-10.875,-4.5625,1.25,2.75,2.6875,-2.625,-1.25,-1.5625,1.3125,3.875,-1.3125,-3.6875,-2.6875,3.1875,3.625,-1.75,-4.1875,-1.9375,-0.375,-3.625,-2.3125,0.375,-1.25,-0.875,-0.75,1.875,2.5,2.0625,1.5,-1.625,-0.6875,1.3125,-1.3125,-5.6875,-4.5625,-1.625,0.6875,-0.0625,-1.875,-3.375,-1.625,-0.25,-0.375,-1.3125,-0.3125,-1.5,-1.5625,-0.4375,0.125,1.5625,-0.5625,-0.25,-3.0625,,,,,,,,,,,,,,,,,,,,,,,,,,,,,,,,,,,,,,,,,,,,,,,,,,,,,,,,,,,,,,,,,,,,,,,,,,,,,,,,,,,,,,,,,,,,,,,,,,,,,,,,,,,,,,,,,,,,,,,,,,,,,,
doubleTap,2,8,-2.5,-0.8125,-0.5625,-0.125,-1.75,-1.625,-2.1875,-1.875,-2.5625,-2.5,-1.1875,-1.375,-1.1875,0.625,15.25,15.4375,31.0625,8.8125,3.5,-14.8125,-17.6875,-1.8125,11.125,-17.375,-33.4375,25.0625,38,65.75,39.1875,5.6875,-12.8125,-27.875,-16.6875,-20.0625,-13.25,-29.8125,-14.25,-27,-27.5,0.5625,14.75,6.5,-13.625,-5.75,-0.8125,-1.8125,-3.25,-3.375,-1.875,-0.8125,0.875,5.25,0.0625,-6.25,-2.0625,0,-4.3125,-5.1875,-1.5,2,0.0625,-1.75,-2.875,-5.625,-3.6875,-1.4375,-2.0625,-1,-1.875,0.5,-0.75,0.5,-3.25,-2.375,-2.875,-1.4375,0.625,-1.25,-1,-2.625,-0.75,-0.5,-1.75,-1.625,-1.125,0.6875,1.3125,0.125,-0.875,-0.8125,0,0.375,-0.375,-1.1875,0.4375,0.9375,2,-0.25,-1.875,-0.875,0,,,,,,,,,,,,,,,,,,,,,,,,,,,,,,,,,,,,,,,,,,,,,,,,,,,,,,,,,,,,,,,,,,,,,,,,,,,,,,,,,,,,,,,,,,,,,,,,,,,,,,,,,,,,,,,,,,,,,,,,,,,,,,,,,,,,,,,,,,,,,
doubleTap,2,9,-8.125,-14,-19.5,-23.6875,-22.0625,-17.625,-17.75,-15.5625,-6.25,1.75,3.6875,1.3125,1.125,2.9375,4.0625,3.75,-0.125,-4.25,-4.625,-4.375,-2.25,-0.9375,-2.375,-4.4375,-2.625,0.1875,3.25,2.6875,-0.4375,-4.625,-6.875,-6.5625,-5.375,-6.3125,-8.25,-10.9375,-6.625,-2.4375,1.9375,3.4375,3.5,6.375,9.3125,16.875,20.125,9.125,2.0625,-6.3125,-7.9375,-8.3125,12.6875,-3.25,-10.5,32.8125,27.5625,66,46.6875,19.25,-22.3125,-27.4375,-19.625,-16.0625,-23.25,-38.25,-43.625,-41.875,-16.625,7.875,10.625,-3.75,-14.5625,-17.25,-14.875,-11,-1.9375,-0.0625,-0.1875,-4.125,-2.5625,-0.1875,0.3125,-0.5,-3.375,-2.8125,-1.4375,0.5,0,3.0625,2.3125,2.9375,-0.4375,-2.1875,0.625,0.1875,1.375,-1,-0.5,-1.5,-0.5625,1.875,2.5625,3.0625,4.5625,6.125,9.5,1.25,-3.3125,-4.5625,6.8125,22.6875,27.5,40.5,-11.25,-16.9375,-27.0625,0.25,18.3125,-7.375,-29.25,-4.1875,53.25,62.8125,87.3125,27.8125,-22.0625,-14.25,-3.625,1.625,-11.9375,-20.75,-23.0625,-42.25,-56.9375,-48.25,-9.625,4.1875,-9,-11.9375,-12.625,-9.8125,-3.3125,-4.8125,-6.1875,-4.625,4.9375,6.875,3.5625,-2.5625,-0.1875,3.3125,4.375,-1.3125,-5.5,-6.125,1.8125,5.875,4.5625,1.25,-1.3125,-1.5,-1.625,-2.5625,-3.125,-3.25,-3.5625,-1.125,-0.8125,-2.25,-0.4375,,,,,,,,,,,,,,,,,,,,,,,,,,,,,,,,,,,,,,,,,,,,,,,,,,,,,,,,,,,,,,,,,,,,,,,,,
fist,3,0,-1.875,0.125,0.25,0.5625,-0.875,-1.1875,-0.0625,1.9375,4.5,26.4375,3.0625,23.1875,25.1875,-13.6875,-29.3125,-31.3125,0.25,3.4375,-2.0625,18.875,51.1875,75.9375,55.5,35.8125,65.375,-123.5,-13.4375,88.0625,43.375,-11.9375,3.0625,20.0625,5.75,-0.0625,3.625,3.5,3.625,-6.625,-2.1875,5.25,6.4375,1.875,-0.4375,-1.1875,-1.875,-0.5625,0.875,-1.5625,0.3125,0.25,-1.875,-5.5625,-0.625,-6.125,-1.1875,6.75,2.4375,-6.8125,-8,-2,-1.6875,-2,-1.4375,-2.875,-1.8125,-1.625,-1.5,-1.5625,-2.75,-2.4375,-3.25,-3.5625,1.8125,6.25,-1.875,-0.75,5.25,-7.4375,-27,-16.5625,-9.3125,-44.1875,-58.875,-51.6875,-27.9375,-36.75,-25.5,0.0625,9.8125,5.0625,-9.4375,-5.9375,2.875,-1.5625,-2.1875,-2.3125,-2.9375,-2.75,-5.4375,-2.5625,-2.125,-1.875,-3.25,-3.875,-2.875,-0.75,0.875,0.125,-1,0.25,-1.25,-0.375,-1.5625,-1.9375,-0.625,,,,,,,,,,,,,,,,,,,,,,,,,,,,,,,,,,,,,,,,,,,,,,,,,,,,,,,,,,,,,,,,,,,,,,,,,,,,,,,,,,,,,,,,,,,,,,,,,,,,,,,,,,,,,,,,,,,,,,,,,,,,,,,
fist,3,1,-0.75,-0.3125,-0.6875,-1.4375,-1.5,-0.75,-0.875,-0.8125,-1.6875,-1.375,-0.625,-0.5,-1.875,-1.8125,-0.6875,0,-0.375,-1,-0.9375,0.125,0.6875,-0.25,-0.5,-1.25,0,0.1875,0.3125,-1.0625,1.625,2.375,0.5,0.75,1.8125,1.5625,3.0625,1.75,2.1875,-1.4375,3.25,12.625,15.25,2.3125,-0.6875,11.625,17.625,11,3.125,-1.75,4.625,12.5625,9.9375,15.1875,21.5625,18.625,14.5,11.375,21.1875,6.5,15.125,8.25,4.875,0.9375,0.8125,-5.9375,-0.8125,3.8125,0.125,-0.0625,2.875,-1.875,-1.5,1.8125,0,1.375,2.4375,-0.875,-3.0625,0.25,3.6875,0.375,0.75,0.75,-1.125,-0.25,1.5625,0.875,4.875,-7.75,-9.5,2.875,4.1875,-5.875,-24,-31.875,-35.625,-30.9375,-36.1875,-30.9375,-24.4375,-36.8125,-28.5,-14.0625,0.0625,3.875,-0.5,-8.875,-3.5625,0.5,-2.625,-1.875,-6.3125,-0.5625,0,-2.4375,-3.125,1,0,-2.0625,4.25,-2.6875,-3.0625,-2,1.0625,3.375,2.6875,-2.125,-3.875,-1.375,1,2.375,-0.1875,-1.875,-1.1875,0.6875,0.75,-2,-1.8125,-1.0625,0.0625,1.4375,,,,,,,,,,,,,,,,,,,,,,,,,,,,,,,,,,,,,,,,,,,,,,,,,,,,,,,,,,,,,,,,,,,,,,,,,,,,,,,,,,,,,,,,,,,,,,,,,,,,,,
fist,3,2,-0.375,-0.375,0.0625,-0.125,0.1875,-0.0625,0.6875,0.8125,-0.1875,-0.3125,0.3125,0.1875,0.1875,-0.375,0.75,0.75,0,-1.875,-2.4375,-1.8125,-0.9375,0,-0.625,-1.4375,-1.1875,-0.3125,0.625,0.3125,-1.375,-1.9375,-0.9375,-0.75,-0.875,-0.4375,-0.1875,-1.125,0.0625,1,-0.9375,-0.375,3.25,5.125,5.6875,2.3125,0.875,2.6875,5.4375,7.5,8.6875,7.8125,7,6.75,6,7.4375,5.6875,2.625,-1.0625,4.1875,5.5,6.5,1.5625,-2.3125,-0.8125,7.3125,13.625,24.3125,24.3125,0.75,8,14.625,14.5,14.6875,10.5625,5.75,-0.75,1.5625,0.4375,-0.1875,-2.3125,-1.75,1.0625,1.25,1.625,-0.5625,-0.375,-0.4375,0.0625,0,-2.5,-0.125,1,-1.1875,0.75,-1.625,-0.1875,-1.125,-1.375,-0.1875,2.5625,-6.3125,-17.8125,-16,-16.1875,-23.5,-21,-8.25,-7.6875,-10.25,-5.8125,-16.75,-16.5625,-34.6875,-10,-26.4375,-33.125,-20.8125,-4.125,11.375,0,-10.25,-14,-0.6875,1.8125,0.375,-1.625,-2.0625,2,-0.1875,-3.375,-3.625,-3.125,-4.1875,-1.4375,-1.5,0.4375,1.8125,-1.9375,-6.3125,-1.6875,0.5,-1.375,-3.8125,-7.0625,-1,2.6875,,,,,,,,,,,,,,,,,,,,,,,,,,,,,,,,,,,,,,,,,,,,,,,,,,,,,,,,,,,,,,,,,,,,,,,,,,,,,,,,,,,,,,,,,,,,,,,,,
fist,3,3,2.9375,0.4375,2.25,0.75,1.5,0.4375,1.875,1.875,3.1875,2.4375,1.1875,-0.875,-2,-0.875,0.125,-2.3125,-7.3125,-7.25,-2.8125,3.1875,0.5,-1.375,0.75,7.4375,6.75,13.375,12.375,-0.125,-6.875,4.6875,15.375,20.1875,14.4375,7,-3.9375,0.125,12.875,15.875,8.5625,-1.9375,8.625,11.5625,17.75,10.5,10.1875,16.875,15.75,8.875,11.1875,12.4375,2.375,8.9375,6.0625,9.375,1.9375,-0.25,-4.4375,-1.25,4.1875,-0.875,1.125,3.375,0.75,0.625,-1.5,1.125,-0.625,-1.5,-0.3125,-0.25,-1.3125,-0.875,-0.25,-1.375,3.4375,3,-5.0625,-15.0625,-16.3125,-8.9375,-5.9375,-16.875,-22.1875,-18.375,-6.875,-0.125,-3,-9.25,-17.3125,-20.375,-23.8125,-30.375,-28.125,-36.75,-14.6875,11.9375,13.75,0.3125,-15.875,-10.0625,-2.3125,0.875,-3.875,-7.125,-8.9375,-1.5625,-4.4375,-2.9375,-7.75,-8.1875,-6.4375,-0.0625,5,0.8125,-1.6875,-4.625,-2.625,,,,,,,,,,,,,,,,,,,,,,,,,,,,,,,,,,,,,,,,,,,,,,,,,,,,,,,,,,,,,,,,,,,,,,,,,,,,,,,,,,,,,,,,,,,,,,,,,,,,,,,,,,,,,,,,,,,,,,,,,,,,,
fist,3,4,-1.625,-1.1875,-0.3125,-0.125,-1.5,-1.5625,-1,-0.0625,-0.1875,-0.75,-1.875,-0.3125,3.375,4.1875,2.625,6.5625,3.3125,6.75,6.3125,2.0625,1.4375,2.25,8,4.9375,-0.375,1.4375,6.25,6.125,3.4375,4.5625,-0.8125,1.75,7.25,5.75,3.375,1.5625,-1.5,3.4375,6.25,4,5.3125,7.75,6.125,10,12.5,3.375,1,5.4375,11.5625,2.75,4.75,11.6875,16.125,10.25,-2.875,7.8125,11.3125,3.8125,0.8125,2.5625,0.75,-0.25,-0.5,0.75,0.9375,2.25,0.125,-1.3125,1.375,2.3125,3,3.9375,6.375,1.625,-0.8125,-0.5,1.875,-10.9375,-16.25,-9.6875,-4.75,-5.6875,-11.9375,-13.375,-13.75,-12.8125,-12.625,-12.25,-15.4375,-2.8125,-30.6875,-13.5625,-13.75,-19.0625,-3.6875,-0.625,3.375,-0.3125,-7.4375,-8.1875,-1.1875,-3.6875,-4.5625,-4.4375,-4.5,-4.3125,-2.875,-5.125,-2.875,2.875,5,5.3125,-0.625,-1.4375,-0.125,1.0625,0.5,0.125,-2.25,-3.75,-2.25,0.5,3.25,3.5625,-0.1875,-1.125,-2.1875,3,-0.1875,-0.375,-3.375,-3.1875,-0.6875,-1.875,-0.5625,-3.5,-1.875,-2.75,0.0625,0.6875,1.75,2.25,2.6875,3.375,2,2.0625,2.625,0.1875,-0.0625,-0.9375,-1.625,0.9375,-0.1875,-2.125,-2.125,-0.3125,2.3125,2.125,0.875,-0.1875,1,1.1875,-0.5625,-1.625,-0.625,-0.8125,-0.125,-0.0625,0.6875,-0.75,-2.875,-2.875,0.3125,2.8125,3.3125,0.625,-1.875,,,,,,,,,,,,,,,,,,,,,,,,,,,,,,,,,,,,,,,,,,,,,,,,,,,,,,,,,,,,,,,,,
fist,3,5,-0.875,-1.5,-0.3125,0,-1.125,-2.4375,-1,0.375,-0.3125,-2.375,-2.0625,-0.3125,0.8125,0.3125,-1.5625,-2.5,-0.6875,0.75,-0.1875,-0.75,-1.4375,0.375,1,-1.0625,-4.4375,-3.375,-0.75,2.6875,-1.6875,-2.625,4.3125,4.8125,0.4375,0.875,6.4375,8.8125,7.1875,4.0625,0.8125,1.5625,6.0625,2.9375,1.4375,1.375,4.3125,0.5,1.25,3.9375,4.5625,1.6875,2.625,5.0625,4.0625,-0.8125,5.375,10.375,13.75,8.3125,11,18.625,7.625,7.6875,11.0625,4.6875,1.875,0.75,5.4375,-3.0625,0.75,5.4375,4,0.5,-1.5625,-0.375,0.75,1.8125,1.25,3.5625,-0.3125,-8.9375,-17.5,-22,-33.5625,-41.6875,-45.875,-33.875,-23.375,-17.375,-17.9375,-8.25,-2.625,-2.875,-1.0625,-4.5625,0.125,4.3125,-4.1875,1,1.625,3.5,0.1875,0,1.0625,1.5,3,1.9375,0.375,-4.1875,-1.4375,-2.1875,2.25,4.3125,7.75,3.4375,2.3125,3.9375,-3.0625,-0.8125,-5.625,0,-8.875,-22.6875,-11.4375,-1.375,-7.5625,-10.375,-11.625,-1.4375,11.1875,11.1875,2.875,-3.625,-1.125,2.25,2,2.625,2.25,-0.9375,-1.9375,0.875,2.4375,-0.6875,0.5,-2.5,0.875,3.375,-2.1875,0.375,1.4375,3.3125,2.1875,-0.5625,-0.6875,0.375,-0.125,0.3125,-1.0625,-0.5,-0.9375,-1.8125,-0.375,-1.625,0.0625,-1.1875,,,,,,,,,,,,,,,,,,,,,,,,,,,,,,,,,,,,,,,,,,,,,,,,,,,,,,,,,,,,,,,,,,,,,,,,,,,,,,
fist,3,6,0,-0.625,-1.875,-0.5,-0.375,-1.9375,-0.8125,-0.5625,-0.625,-1.5,-1.625,-1.5,-0.9375,-0.25,-1.8125,-0.9375,2,2.4375,-0.1875,-2.9375,-0.0625,4.1875,6.375,6.125,3.875,1.375,1,4.75,5.9375,3.125,-2.5,-2.9375,3.375,7.375,4.5,-2.9375,-1.75,5.4375,8.9375,4.1875,-0.6875,-3.125,3.3125,4.4375,0.4375,-0.5625,0.0625,2.375,2,1.25,0.25,3.375,3.5625,8.0625,11.625,13.625,5.625,8.6875,5.9375,6.125,7.625,6.375,5.875,4.5625,3.375,0.6875,-0.125,-2.875,0.0625,3.3125,3.0625,0.125,-1.9375,2.5625,-0.625,-2,-1.5,0.5625,0.375,-1.375,0.4375,-0.0625,-3.0625,-0.5625,2.1875,-4.4375,-11.125,-10.5625,-7.625,-9.875,-10.0625,-6.125,-8.9375,-10.625,-5.1875,-1.1875,-11.5625,-17.6875,-12.125,-17,-8.0625,-14.5625,-13.5,-12.125,-18.0625,-6.4375,3,0.6875,-4.3125,-1.5625,0.6875,2.3125,0.5625,0.5,0.0625,-2.625,3,1.6875,-1.1875,-4.1875,-2.8125,-0.625,6.5625,1,-4.875,-7.9375,-4.625,-2.6875,0.8125,-0.6875,-2.25,-0.9375,0.5625,1.5,,,,,,,,,,,,,,,,,,,,,,,,,,,,,,,,,,,,,,,,,,,,,,,,,,,,,,,,,,,,,,,,,,,,,,,,,,,,,,,,,,,,,,,,,,,,,,,,,,,,,,,,,,,,
fist,3,7,0.125,1.125,-0.25,-0.3125,-0.125,0.1875,-0.875,0,-0.5625,1.0625,-0.75,-0.9375,-1.0625,0,-0.5,-0.125,-1.1875,-1.125,-0.4375,-1.0625,-1.25,-0.6875,0.1875,-0.625,0.125,2.6875,3.5,3.1875,0.3125,-3.25,-0.625,5.8125,9,5.625,2.625,1.75,6.6875,5.5625,2.625,1.0625,-0.625,0.1875,0.1875,0.8125,0.8125,1.75,-0.375,0.4375,-0.875,-2.25,2.75,4.0625,0.8125,-2.4375,1.25,2.3125,0.3125,-2.75,-4.25,-1.75,1.9375,2.5625,1.9375,12.25,17.8125,7.0625,3.5625,5.8125,9.3125,17.8125,7.375,9.8125,21.0625,15,0.625,4.1875,-6.125,-5.3125,-5.875,-2.875,0.8125,-0.6875,0.8125,0.5625,-1.25,-1.6875,0.75,-0.625,-0.125,-0.3125,0.9375,1,0,-1.4375,-2.5,-2.875,-0.8125,-6.375,-8.875,-10.1875,-8.4375,-6,-7.5625,-10.0625,-7.25,-1.9375,-2.125,-4.5,-5.8125,-10.1875,-3.875,-7.0625,-4.75,-24,-14.0625,-6.75,-12.125,-10.3125,-12.1875,-6.6875,-11.125,-7.6875,-2.375,0.625,-5.8125,-12.25,-5.125,-5.375,-0.625,-1.875,-2.875,-5.1875,-5.4375,-0.875,-1.4375,-2.25,-2.6875,1.6875,3.8125,3.0625,0.6875,,,,,,,,,,,,,,,,,,,,,,,,,,,,,,,,,,,,,,,,,,,,,,,,,,,,,,,,,,,,,,,,,,,,,,,,,,,,,,,,,,,,,,,,,,,,,,,,,,,,,
fist,3,8,0.1875,0.3125,-0.3125,-0.8125,0.6875,-0.6875,-1.375,-0.9375,-0.4375,-0.375,-1.3125,-1,-0.5,-0.4375,-0.1875,-0.0625,-1.1875,-1.0625,-0.5625,-1.5625,-1.0625,-0.3125,-0.75,-1.0625,-1.75,-0.3125,0.3125,-0.375,-1.125,-0.4375,0.6875,1.6875,0.1875,-0.1875,1.5,2.6875,6.3125,2.5,-3,2.75,9.375,11.9375,11.75,0.5,-6.3125,0.3125,6.625,3.5625,-0.75,-3.125,-0.125,2.875,2.5,-3.25,-4.125,0.5,6.0625,6.75,-0.5625,-0.75,4.6875,5.75,4.6875,3.375,4.3125,5.1875,7.375,5.5,1.75,3.5,7.875,4.4375,1.0625,1.3125,7.375,2.5,1.875,2.1875,5.875,5.5625,0.9375,6.875,7.125,2.8125,3.125,3.875,6.9375,-1.25,-2.875,0.5,-1,-1.0625,0,-1.8125,-2.5625,-1.25,-1.1875,-1.3125,-3.875,-1.0625,-3.0625,-4.4375,-9.125,-12.5,-12.6875,-10.625,-3.9375,-5.9375,-4.5,-6.375,-7.125,-9.75,-20.5,-20,-12.4375,-27.4375,-14.3125,-28.4375,-17.5625,-1.4375,3.4375,0.375,-10.9375,-10,-1.6875,-3.375,-2.75,-3.125,-0.8125,-2.8125,-1.25,-2.25,-1.4375,0.4375,1.8125,-0.6875,-0.3125,-0.0625,0.5,-0.125,0.75,0.875,,,,,,,,,,,,,,,,,,,,,,,,,,,,,,,,,,,,,,,,,,,,,,,,,,,,,,,,,,,,,,,,,,,,,,,,,,,,,,,,,,,,,,,,,,,,,,,,,,,,
fist,3,9,-0.8125,-0.8125,-0.1875,0.125,0.3125,-0.5625,-0.375,-0.8125,-0.625,1.375,2.625,1,0.4375,-0.3125,2.3125,1.875,3.75,1.8125,0.75,2.4375,6.125,6.0625,4.625,2.25,0.75,3.6875,4.3125,5.9375,6.25,2.125,4,6.5,8.0625,5.4375,1.9375,-0.5625,3.75,4.4375,3.75,-1.0625,0.4375,2.6875,4.3125,4.5,1.9375,5.25,8.1875,13.5625,15.5,10.125,13,13.625,5.875,11.375,12.6875,10.1875,8.125,11.1875,3.25,1.625,5.9375,7.125,2.3125,-1.1875,-2.5,0.5,-1.875,-0.8125,-0.4375,-0.8125,0.125,-0.8125,-0.25,-1.5625,-1.875,-2.875,-3.4375,-1.9375,-3.8125,-19.1875,-24.4375,-18.1875,-13.6875,-12.25,-12.8125,-15.8125,-14.3125,-5.875,-3.625,-5.3125,-9.1875,-7.625,-21.8125,-19.875,-8.9375,-7.375,-9,-14.375,-4.625,1.75,-4.75,-6.9375,-3.1875,1.5,2.1875,-1.875,-0.1875,2.125,0.1875,-3.3125,3.125,0.75,-2.125,-8.0625,-9.6875,-6.75,-2.625,-1.4375,-2.25,-2.3125,0.625,-1.25,2.75,0.375,1.5625,0.4375,1,,,,,,,,,,,,,,,,,,,,,,,,,,,,,,,,,,,,,,,,,,,,,,,,,,,,,,,,,,,,,,,,,,,,,,,,,,,,,,,,,,,,,,,,,,,,,,,,,,,,,,,,,,,,,,,,,,,
fingersSpread,3,0,-0.625,-1.8125,-1.8125,-1.75,-1.6875,-1.3125,-1.125,-0.875,-0.8125,-0.8125,-0.875,-0.875,-0.1875,0.3125,0.75,0.3125,0.6875,4.75,3.25,1.9375,-0.125,-9.4375,-4.4375,-35.6875,7,22.25,0.9375,-3.6875,8.5625,-5.125,-4.875,-4.4375,2.6875,9.6875,0.0625,-3.8125,-1.1875,2.5625,4.3125,4.875,-2.5625,-0.1875,3.875,2.9375,1.5625,-4.4375,-0.0625,4.4375,-0.25,-3.375,-0.8125,7.8125,6.1875,0.5,-1.3125,-3.375,-4.75,-5.25,-4.4375,1.25,-3.875,-7.6875,-1.5625,-0.75,-15.625,-11.9375,-8.9375,-11.0625,-12.25,-8.9375,-2.5625,1.625,3,-3.375,-2.875,-1.9375,5.125,6.75,7.5,6.625,2.375,-2.75,-4.5625,0,2.6875,2.4375,-0.625,-2.25,-2.3125,-1.625,-3.0625,-1.3125,-3.1875,-4.375,-2.4375,,,,,,,,,,,,,,,,,,,,,,,,,,,,,,,,,,,,,,,,,,,,,,,,,,,,,,,,,,,,,,,,,,,,,,,,,,,,,,,,,,,,,,,,,,,,,,,,,,,,,,,,,,,,,,,,,,,,,,,,,,,,,,,,,,,,,,,,,,,,,,,,,,,
fingersSpread,3,1,-1.9375,-1.4375,0.375,-0.4375,-1.75,-1.75,-1.375,-0.9375,-1.8125,-2.25,-1.875,-0.6875,-0.6875,-0.875,-0.5,0.125,3.75,2.1875,4.375,3.8125,6.25,-4.6875,-8.0625,-1.9375,0.0625,0.6875,-1.8125,-0.6875,-0.125,3.9375,10.125,-0.0625,-2.375,5.1875,8.1875,4.3125,-0.25,0.1875,3.4375,3.5625,-5.75,-3.5625,1.8125,5,2.9375,2.8125,0.375,-1.625,-2.9375,3.1875,0.8125,0.875,0,-2.25,-0.25,4.25,-2.8125,-4.875,-1.25,1.375,1,-1,-1.625,0.375,4.4375,0.125,-3.6875,-4.375,0.375,-1.3125,-2.4375,-0.3125,-4.125,-0.375,1.1875,-2.625,-2.8125,-2,-1.5625,-3.5625,-5.1875,-12.25,-5.8125,18.25,19.6875,-3.5,-11.0625,-5.0625,2.6875,3.75,-2.4375,-13.6875,-10.9375,-2.4375,0.375,-1.4375,-5.1875,-7.875,-8.4375,-4.8125,-0.375,-0.375,-1.8125,-2.625,-3.3125,-2.375,-1.625,0.6875,,,,,,,,,,,,,,,,,,,,,,,,,,,,,,,,,,,,,,,,,,,,,,,,,,,,,,,,,,,,,,,,,,,,,,,,,,,,,,,,,,,,,,,,,,,,,,,,,,,,,,,,,,,,,,,,,,,,,,,,,,,,,,,,,,,,,,
fingersSpread,3,2,-1.1875,-0.25,-0.4375,-2.3125,-3.875,-3.25,0.9375,2.875,0.625,-1.8125,-0.75,1.6875,2.1875,0.125,-1.625,-0.3125,1.375,1.25,0.125,-0.125,1.125,1.5,0.8125,5.5625,18.625,9.5,-16.9375,-13.4375,-12.6875,-5.125,15.5,8.5625,-0.4375,0,0.9375,-7.4375,-10.9375,1.4375,9.875,8.125,5.5,5.5,3,2.5625,2.75,3.125,4,0.125,2.375,3.5,-0.875,-2.625,-0.5,3.25,0.8125,-3.5,-2.0625,0.375,3.75,-2.5,-1.875,8.25,8,15.8125,16.3125,9.75,12,10.875,3.125,-1.6875,0.875,1.5625,-2.9375,-6.5625,0.5,-3.9375,-2.5,9.875,14.8125,11.5625,4.6875,10.125,5.6875,0.25,-1.5,0.625,-1,-3.5,-3.25,-4.9375,-8.3125,-12,-13.5625,-15,-22.1875,-13.25,-13.25,-6.75,-3.875,-5,-10,1.5625,6.875,6.125,5.0625,-4.375,-5.8125,-2.6875,3.9375,2.375,-1.875,-5.375,-4.5,-3.6875,-2.25,-3.0625,-3.0625,-3.3125,-2.75,-1.9375,-3.125,-1.4375,,,,,,,,,,,,,,,,,,,,,,,,,,,,,,,,,,,,,,,,,,,,,,,,,,,,,,,,,,,,,,,,,,,,,,,,,,,,,,,,,,,,,,,,,,,,,,,,,,,,,,,,,,,,,,,,,,,,,,,,
fingersSpread,3,3,-0.625,-0.3125,-0.25,-0.9375,-1.4375,-1.875,-0.6875,-0.8125,-1.375,-1.625,-0.75,-2.5,-5.1875,-3.75,-2.1875,7.5,8.9375,-0.4375,-9.75,-9.5,0.3125,-4.9375,-6,-4.375,1.3125,-1.375,-5.1875,-8.3125,-6.25,0.4375,2.375,-1.4375,-3.625,-3.3125,2.5625,2,-3.75,-9.3125,-5.3125,7.3125,5.875,0.125,-1.875,3.1875,3.6875,4.1875,-1.25,-1.8125,2.6875,0.75,0.1875,0.75,-2.25,-2.5,-0.25,-0.4375,-2.625,-0.875,0.125,-0.5,8,5.25,-1.125,-1.5,-0.0625,-1.3125,-3.5,-0.0625,1.5,3.375,5.1875,6.375,9.25,5.125,3.25,8.625,13.75,5.5625,6.125,4.5,2.25,1.1875,0.6875,1.4375,-1.0625,1.4375,0.6875,2.4375,3.5,1.8125,-0.6875,0.375,4.6875,3.9375,1.875,-11.875,-14.875,-5.8125,7.375,0.375,-10,-6.875,-1.3125,4.0625,-0.625,-10.75,-18.8125,-11.25,2.875,5.9375,4.4375,3.0625,7.125,4.6875,0.375,3.875,7.9375,6,1.125,0.75,-0.6875,2.1875,4.0625,3.25,-5.1875,,,,,,,,,,,,,,,,,,,,,,,,,,,,,,,,,,,,,,,,,,,,,,,,,,,,,,,,,,,,,,,,,,,,,,,,,,,,,,,,,,,,,,,,,,,,,,,,,,,,,,,,,,,,,,,,,,,,,
fingersSpread,3,4,-0.3125,-2.125,-1.5625,-0.9375,-1.375,-1.875,-1.8125,-1.375,-2.4375,-1.9375,-1.9375,-2.125,-1.5,-1.4375,-1.625,-1.5,-1.625,-1.25,-0.875,-0.6875,-2.3125,-4.625,-3.1875,-1.1875,4.375,5.25,-0.5625,-4.0625,-16.375,-15.9375,-4.1875,-1.3125,3.5,0.25,-7.5,-3.125,-3.6875,-4.25,-6.1875,-9.3125,-3.375,-2.25,1.5,-1.375,-0.3125,4.625,8.5625,2.375,-5.5625,-2.375,6.75,-2.1875,-9,-3,3.0625,-6.25,-10.5,-4.4375,-2,2.0625,5.3125,-2.6875,-10.4375,-3.6875,2.3125,0.6875,0.8125,-1.3125,-8.3125,-0.3125,8.1875,0.1875,-10.5625,-4.0625,-1.5,-3.125,-6.4375,-11.875,-9,-1.75,3.5,1.8125,-11.5,-10,7.3125,22.375,19.1875,0.75,-6.125,-1.4375,5.1875,13.3125,7.25,-2.6875,2.875,7.1875,3.25,-3.8125,0.875,5.25,7.875,2.75,-1.6875,-1.5,-2.5625,-1.3125,-1.875,-0.0625,0.625,-1.5625,-1.6875,-0.6875,0.375,,,,,,,,,,,,,,,,,,,,,,,,,,,,,,,,,,,,,,,,,,,,,,,,,,,,,,,,,,,,,,,,,,,,,,,,,,,,,,,,,,,,,,,,,,,,,,,,,,,,,,,,,,,,,,,,,,,,,,,,,,,,,,,,,
fingersSpread,3,5,-2.9375,-2.6875,-2.9375,-2.25,-2.4375,-2.8125,-2.375,-2.4375,-2.9375,-2.0625,-1.25,-2.375,-3.375,-2.3125,-2,-1.9375,-2.375,-1.6875,-3.0625,-5.125,-3.625,-2.125,-1.875,-3.4375,-5.75,-4.0625,-1.5625,0.8125,5.5,-1.25,-12.375,-10.3125,-1.625,-4.5625,-5.1875,-7.625,-7.5,-5.25,-0.1875,-9.625,-1.0625,0.4375,-0.125,0.875,0.1875,4,3.75,-2.0625,1.1875,7.625,18.75,10.875,0.5625,6.25,10.0625,8.5625,0.8125,5.8125,9.8125,5.875,12.75,18.25,7.3125,-0.875,6.0625,5.75,1.5,-1.375,-0.8125,0,-0.6875,-1.5,3.75,1.5,-3.625,-1.5625,-2.75,-0.9375,0.25,-3.375,-4.5,-0.75,2.375,-2.1875,-4.0625,-1.875,1.6875,3.25,1.125,-3.875,2.1875,3.6875,1.125,-6.25,-0.4375,-1.375,-1.0625,-4.5,-5.625,-7.1875,0.1875,-0.75,-18.5625,-25.1875,-8.25,6.875,-2.9375,-25.3125,-26.375,-13.1875,4.875,9.5,1.75,-10.75,-7.75,0.625,3.875,1.1875,-0.875,,,,,,,,,,,,,,,,,,,,,,,,,,,,,,,,,,,,,,,,,,,,,,,,,,,,,,,,,,,,,,,,,,,,,,,,,,,,,,,,,,,,,,,,,,,,,,,,,,,,,,,,,,,,,,,,,,,,,,,,,,,
fingersSpread,3,6,-1.625,-2.25,-2,-0.9375,-0.6875,-0.3125,-1.4375,-1.6875,-1.125,-0.5,-0.9375,-0.5625,0,-0.5,-1,-0.9375,-0.875,-0.8125,-1,-1.0625,-1,-0.5625,-1.0625,-1.5625,-3.5,-3.625,-5.125,-1.0625,-0.3125,-1.1875,-0.625,1.25,1.4375,-0.3125,-1.625,-1,3.0625,2.0625,-7.9375,-5.0625,-5.0625,-7.625,-1.875,-0.1875,-1.5625,-2.5,-2.625,-1.4375,2.0625,4.1875,0.125,-13.0625,-7.625,-2.25,1.125,-9.375,-12.25,-0.1875,5.9375,2.25,-3.875,-2.75,1.625,2.875,-1.875,-1.5625,-3.6875,-1.5,-0.1875,4.25,3.625,0.6875,-3.6875,2.125,13.25,5.625,-8,-4.875,7.4375,5.125,-8.5625,-10.5,-5.1875,5.6875,5.6875,0.6875,-0.1875,-3.625,3.625,5.125,5,-4.25,-0.625,5.25,1.9375,4.6875,-2,-3.25,2.8125,2.6875,0.6875,0.75,2.1875,3.125,2.75,-4.375,-1.4375,-0.75,-0.6875,-6,-16.9375,-27.25,-28.6875,-16.875,-6.5625,-11.5,-10.25,-4.8125,2.5625,-3,2.5,7.4375,5.5,0.375,-1.1875,2.5,4.9375,4.25,-0.25,0.5,0.0625,2.625,1.3125,-0.4375,-0.9375,-1.875,-0.4375,1.25,-1.0625,-2.3125,-1.6875,,,,,,,,,,,,,,,,,,,,,,,,,,,,,,,,,,,,,,,,,,,,,,,,,,,,,,,,,,,,,,,,,,,,,,,,,,,,,,,,,,,,,,,,,,,,,,,,,,,,,
fingersSpread,3,7,-4.1875,-7.25,-3.9375,4.625,3.625,-5.3125,-11.625,-4.3125,-0.3125,1.25,-9.0625,-8.3125,3.75,8.5625,-1.9375,-6,0.75,1.5,-1.625,-2,1,-3.0625,-1.5625,-0.3125,2.75,5.75,7.6875,-1.5,4.75,7.9375,3.1875,0.3125,11,4.5,2.4375,8.1875,8.1875,3.375,1.0625,6.8125,7.8125,-0.375,-4,6.5,8.125,-4.5,-10.375,1.875,11.0625,-0.4375,-7.625,1.5,-0.5625,-2.875,-4.75,-3.375,-4.4375,-4.625,-7.375,-27.625,-16.5625,6.75,17.3125,2.1875,-11.875,-12.875,-0.8125,3.1875,-7.4375,-5.5,-0.75,1.1875,0.375,-8.3125,-11.125,-4.875,2.3125,2.375,-0.6875,-1.375,1.5,5.8125,-1.9375,-4.9375,-2.625,-1.5625,-2.25,-2.5,-2.75,-3.75,0.125,1.75,-0.1875,-2.25,-1.8125,-0.25,,,,,,,,,,,,,,,,,,,,,,,,,,,,,,,,,,,,,,,,,,,,,,,,,,,,,,,,,,,,,,,,,,,,,,,,,,,,,,,,,,,,,,,,,,,,,,,,,,,,,,,,,,,,,,,,,,,,,,,,,,,,,,,,,,,,,,,,,,,,,,,,,,
fingersSpread,3,8,0.6875,0.25,0.25,0.0625,0.25,0.25,0.5,0,-0.25,-1.25,-0.625,0.8125,0.5,-0.75,-0.9375,-1.8125,-1.3125,-0.5625,-0.5625,-1.25,-1.4375,-0.5625,-0.375,0.0625,0,-1.5,-1.25,3.75,3.25,-4.5,-6.125,1.875,3.5,-2.4375,-6.1875,-5.0625,-4.5625,-5.3125,-5.125,-2,-4.875,-14.5,-12.6875,1,2.125,-0.75,-11.75,-2.4375,0.3125,3.75,-1.3125,-6,-8.625,-6.5,-1.0625,-0.8125,0.5625,-3.0625,-1.25,-4.4375,-2.25,1.75,4.25,-0.5625,-1.875,0.6875,6.3125,0.375,-1.8125,0.875,-0.375,-1.75,-4.0625,1.3125,-1.8125,-0.0625,2,4.25,-3.1875,-4.625,-0.375,-3.125,2.75,-3.75,-8.4375,0.75,-1.75,-2.9375,2.5,-8.75,-9.75,-4.5625,-4.0625,-8.125,-4.8125,-5.5,-10.3125,-5.3125,4.1875,10.3125,12.6875,7.625,0.75,-3.0625,-3.5,0.125,3,0.8125,3.625,7.5,6,8.125,6.5,2.75,3.1875,4.125,0.8125,3.3125,4.9375,2.375,,,,,,,,,,,,,,,,,,,,,,,,,,,,,,,,,,,,,,,,,,,,,,,,,,,,,,,,,,,,,,,,,,,,,,,,,,,,,,,,,,,,,,,,,,,,,,,,,,,,,,,,,,,,,,,,,,,,,,,,,,
fingersSpread,3,9,0.25,-0.3125,-1.8125,-1.8125,0.875,1.375,1.9375,-1.375,-2.5,-2.375,-1.75,-1.125,-1.75,-1.3125,-1.1875,-1.1875,0.1875,0.625,-0.625,-0.75,1,1,-0.8125,0.125,2,0.75,1.375,0.75,-2.375,-2.875,-2.5625,-2.375,-2.4375,-0.625,-0.875,-0.4375,-3.75,-7.25,-4.6875,-1.5,0.5,0,-1.0625,-1.6875,2.125,1.75,0.625,0.9375,1.1875,1.9375,-3.125,-0.875,-1.625,-3.9375,-1.875,0.375,2.8125,-1.375,-2.875,-3.0625,-0.25,-0.9375,0.4375,-1.8125,-1.125,-1.8125,-3.5,0.3125,1.375,-1.0625,-2.375,1.4375,1.0625,-0.375,3,7.4375,4.125,-5.1875,-1.0625,5.3125,9.8125,10.6875,12.5,16.5625,13.3125,10.625,11.125,15,7.375,4.9375,3.5625,8.6875,2.0625,6.9375,0.1875,0.5,2.0625,-0.1875,-3.375,2.75,-4.125,-6.125,-3.375,-5.3125,-7.375,-14.0625,-12.1875,-6.25,-4.0625,-4.8125,-2.0625,1.4375,-0.1875,-3.5625,-6,-3.6875,-2.625,-5.1875,-2.375,-0.8125,-5.0625,-5.3125,-3.625,-3.8125,-7.0625,-10.1875,-9.375,-14.75,-18.125,-9.625,-2.25,-9.375,-12.625,-6.4375,-9.0625,-21,-3.5625,14.8125,22.875,2.0625,-9.875,-5.1875,6.1875,14.625,8.375,-2.5,-11.0625,-4.25,1.5625,2.5625,2.75,0.125,0.75,2.3125,2.5,1.875,1.1875,0.0625,2.5,3,2.375,-1.5,-0.3125,,,,,,,,,,,,,,,,,,,,,,,,,,,,,,,,,,,,,,,,,,,,,,,,,,,,,,,,,,,,,,,,,,,,,,,,,,,,,,,
waveOut,3,0,1.625,0.875,2.3125,2.25,3.75,3.75,3.4375,2.9375,3.25,3.3125,2.6875,1.75,0.4375,-0.875,-0.8125,-0.5625,1,-0.1875,0.25,1.125,1.5625,1.75,1.8125,5.25,6.25,11.75,20.5,12.375,9.5,1.6875,3.3125,7,-5.8125,-0.4375,-0.4375,-0.4375,1.5625,2.0625,8.75,4.3125,-3.625,-2.125,-2,-2.0625,-5.3125,-8.125,-8.5,-5.875,-8.0625,-10.8125,-10.0625,-3.375,2.625,-8.75,-9.6875,-0.9375,0.5625,-4.8125,-12.1875,-12.3125,-12.5,-3.75,1.75,-9.6875,-6.125,6.25,-0.25,-11.4375,-10.375,-3.5,-5.9375,-5.375,1.9375,-2.0625,-0.8125,0.9375,-0.9375,1.1875,0.3125,-1.875,3.125,-0.1875,-4.75,-2.8125,-7.375,-23.625,-25.0625,-25.0625,-24.1875,-13.4375,-11.875,-13.875,-8.4375,-1.5,0.875,-7.375,3.0625,4.4375,10.875,2.9375,-4.25,-4.5625,13.5,27.25,17.125,13.1875,14.8125,44.875,36.875,16.125,28.125,21,12.3125,18,26.875,19.125,0.5625,-3.9375,1,0.75,-8,-5.375,1.875,-1.9375,-6.75,-12.3125,-7.875,1.625,-2.625,,,,,,,,,,,,,,,,,,,,,,,,,,,,,,,,,,,,,,,,,,,,,,,,,,,,,,,,,,,,,,,,,,,,,,,,,,,,,,,,,,,,,,,,,,,,,,,,,,,,,,,,,,,,,,,,,
