
fist,1,0,37,44,45,51,51,49,44,44,36,37,34,31,27,28,29,32,31,31,29,32,32,32,34,35,35,33,36,35,41,38,39,39,38,33,34,34,33,37,35,39,39,50,46,46,43,98,240,366,590,780,890,912,902,904,912,910,942,974,945,868,894,864,840,778,770,693,677,680,664,663,615,585,550,550,474,440,440,416,378,355,376,375,362,358,363,379,408,423,457,447,409,353,372,375,375,405,420,420,390,415,387,400,409,511,520,538,526,517,403,378,352,550,1033,1222,1367,1391,1320,973,727,506,427,424,430,418,215,182,160,166,166,155,145,170,172,173,185,195,170
fist,1,1,227,150,152,166,293,297,308,317,317,221,280,278,285,283,302,259,323,332,338,321,303,297,279,272,271,271,221,207,206,265,264,238,243,259,362,531,644,700,713,652,524,392,367,358,415,487,505,568,556,525,464,432,250,234,183,163,203,191,187,190,192,146,167,163,141,136,133,93,97,95,98,85,86,97,97,100,99,103,80,79,68,74,70,72,70,70,67,72,98,184,256,509,652,705,726,773,758,668,628,637,635,513,588,620,637,607,600,513,509,465,456,456,464,459,440,411,413,413,404,413,406,431,441,414,458,482,458,454,485,460,447,435,455,449,421,431,433,378,321,357,530,599,667,753,765,664,665,632,546,522,492,408,354,386,359,338,320,312,221,187,197,193,180,167,172
fist,1,2,65,68,70,69,65,61,65,70,55,64,67,75,76,77,84,91,79,75,79,66,62,62,64,68,71,61,64,64,55,49,48,51,45,50,79,86,87,94,139,168,196,229,419,666,745,847,860,859,760,758,681,673,622,600,531,514,603,594,588,569,577,494,530,510,515,554,579,525,505,558,505,468,456,478,446,412,451,453,444,414,419,440,481,435,415,442,443,424,420,446,501,502,485,492,521,438,367,364,350,277,308,278,308,311,337,413,420,393,405,399,338,339,366,391,367,353,370,387,381,395,360,361,368,337,334,337,305,305,297,279,272,273,171,150,131,125,103,88,100,103,100,93,110,99,92,90,95,76,70
fist,1,3,62,87,79,79,80,86,65,68,66,74,80,87,84,86,103,98,105,179,221,238,298,373,390,411,468,520,599,640,657,639,612,535,501,505,532,537,554,569,638,660,634,592,573,452,338,335,342,288,346,371,351,349,430,466,462,468,464,405,367,432,438,464,479,466,479,510,478,483,455,443,414,436,416,497,447,467,447,477,413,399,397,404,337,366,349,291,268,270,169,168,272,276,279,264,280,291,318,329,344,341,276,257,249,246,238,240,251,242,227,222,181,135,116,102,92,98,101,126,121,126,122,131,112,147,163,160,154,151,117,135,138,133
fist,1,4,47,47,45,50,44,42,45,55,54,52,55,56,49,44,47,50,72,93,109,132,155,176,194,190,262,264,262,269,301,257,277,303,332,361,400,400,416,446,470,492,515,513,541,549,613,619,597,536,484,360,385,403,414,439,423,368,417,398,385,402,387,371,431,441,418,425,392,355,323,400,384,387,377,382,337,373,413,417,424,389,359,295,301,268,319,309,315,325,347,310,341,321,262,306,296,260,256,248,131,108,107,123,184,218,250,270,263,240,227,256,303,308,303,308,266,269,267,288,281,272,188,178,124,95,107,113,130,136,138,134,125,122
fist,1,5,40,44,47,53,57,58,57,64,63,61,68,117,531,680,687,690,686,452,154,118,105,86,74,75,69,64,53,55,78,104,129,634,839,934,962,1000,819,667,564,524,483,453,374,376,371,329,376,420,391,468,481,449,441,487,461,538,539,527,517,476,388,392,393,448,524,522,518,524,436,380,424,455,462,451,446,405,392,358,406,377,449,442,485,466,505,459,439,405,442,420,480,475,490,471,477,386,361,311,247,221,259,265,263,263,226,163,326,412,416,465,476,430,426,425,380,383,339,276,366,412,496,522,514,462,450,339,300,291,276,250,255,239,217,209,149,134,118,117,125,133,153,154,210,211,204,229,230,192,245,255,220,223,221,148,165,165,153,154,164
fist,1,6,59,57,50,56,64,60,63,69,70,64,64,73,95,100,111,112,111,138,141,146,167,204,236,302,359,381,464,452,427,391,383,257,288,481,640,640,647,628,491,313,307,298,307,338,291,442,510,527,511,502,418,335,319,311,331,284,359,342,340,317,319,273,300,305,345,362,359,349,350,320,340,322,311,318,329,311,290,310,384,378,405,417,461,437,480,425,421,352,287,170,162,131,232,242,249,264,271,197,278,321,325,322,330,277,243,251,253,232,221,215,214,203,213,210,195,155,157,147,120,122,131,132,146,148,140,127,133,116,133,127,139,131,122,94,97,88
fist,1,7,121,119,120,129,125,105,126,211,403,490,562,588,570,601,676,631,609,615,483,254,223,211,181,150,138,176,236,366,392,395,383,366,251,218,205,203,164,149,152,160,176,183,187,189,192,179,191,183,164,149,152,135,121,145,154,149,152,179,163,157,168,173,153,151,149,124,111,114,125,133,161,165,164,171,177,212,222,222,220,217,182,170,173,177,195,194,192,218,217,202,189,213,190,197,201,248,236,232,215,224,178,158,147,143,99,71,62,66,151,250,255,263,267,231,126,117,94,107,141,160,166,168,174,170,148,145,190,184,220,252,285,286,282,248,240,202,175,169,161,118,118,102,95,100,104,104,98,103,94,93,83,76,142,146,153,157,158,138
fist,1,8,65,63,52,84,109,174,200,215,222,321,313,320,439,484,558,559,552,465,436,249,275,281,279,277,280,229,240,267,261,255,272,274,271,241,278,335,417,447,465,447,458,405,393,382,383,364,379,353,360,386,380,344,343,348,336,375,411,438,459,479,441,412,387,361,350,326,302,274,243,189,154,141,227,225,215,221,256,196,206,198,197,167,220,226,236,257,245,197,188,197,182,212,211,221,206,193,172,158,126,126,125,95,92,105,102,96,99,99,89,78,86,87,86,83,94,85,93,90,93,107
fist,1,9,55,59,53,52,57,58,60,54,55,58,54,52,51,50,39,40,36,62,131,202,251,270,285,280,243,204,189,164,146,176,202,217,227,310,318,330,387,392,339,317,307,229,222,207,229,210,206,214,215,206,203,203,203,207,189,204,219,226,223,259,270,266,302,302,272,263,255,194,191,212,198,208,291,306,303,321,308,286,272,288,279,304,265,277,261,316,331,358,363,364,305,301,252,236,216,207,153,145,125,114,124,208,253,264,273,268,201,136,115,91,97,105,127,128,131,126,125,124,118,123,127,126,132,130,143,139,141,118,127,105,118,113,113,107,103,88,88,82,78,82,85,83,81,83,80,83,85,83,77,84,80,74,70
fingersSpread,1,0,32,33,32,25,25,26,24,27,28,25,26,27,24,24,25,26,23,28,62,91,108,514,873,898,902,903,758,301,356,374,424,438,474,414,413,389,443,454,621,753,885,909,916,889,845,830,819,931,861,865,800,818,853,924,979,977,955,841,851,853,861,851,801,684,482,343,259,197,184,172,168,155,124,108,182,367,448,451,458,442,314,189,181,165,138,113,54,46,37,35,38,35,36,28,28,29,33,37,50,49,46
fingersSpread,1,1,129,153,187,195,224,216,247,228,255,268,318,316,335,360,392,457,502,554,634,626,626,645,612,562,584,593,658,691,680,691,717,647,657,660,616,583,612,593,590,628,625,650,654,666,627,573,442,398,294,275,225,222,147,165,161,159,153,147,136,186,193,186,178,169,162,159,171,209,265,240,233,221,184,83,51,39,35,29,34,49,52,126,154,159,155,154,105,56,37,34,34,38,45,53,54,54,49,42,31,32,30,27,28,29,27,25,24,22,22,24,24,24,27,27,23,23,26,23,22,23,26,25,26,29,30,31,31,31,28,27,23,23,22,25,31,32,34,37,35,30,30,32,29,29,31,30,25,23,25,24,25,24,25
fingersSpread,1,2,25,25,31,32,33,29,30,27,45,46,49,49,49,35,39,36,45,59,62,77,90,96,114,122,165,170,179,196,200,167,172,169,169,188,192,207,228,222,302,327,357,366,462,476,560,661,743,731,796,785,693,636,629,666,683,720,770,809,704,738,769,762,783,879,991,1080,1076,1072,1035,887,725,732,699,702,710,714,752,788,781,741,760,656,528,431,413,327,282,288,234,196,168,155,141,120,100,113,168,162,171,195,191,148,143,123,74,51,46,51,49,58,59,87,85
fingersSpread,1,3,370,281,137,103,70,53,40,38,49,50,70,77,76,72,71,56,86,95,102,111,118,98,115,125,131,128,132,114,111,99,113,127,139,147,192,250,270,281,304,288,270,280,359,544,646,723,762,774,730,660,609,586,607,526,537,614,670,634,699,756,695,656,673,700,694,703,797,831,770,734,733,624,699,737,720,752,831,759,753,749,767,783,768,738,856,782,651,591,568,365,366,340,317,276,336,334,361,352,354,252,203,368,384,387,382,510,440,450,443,446,311,217,160,159,143,75,57,49,40,46,45,45,46,47,50
fingersSpread,1,4,36,34,32,30,28,27,30,37,40,38,41,40,34,28,71,86,104,108,123,119,117,112,116,107,107,101,117,141,162,176,218,278,318,330,412,416,403,382,388,309,296,339,385,429,446,494,477,575,692,800,811,805,812,759,734,812,839,793,813,848,809,876,874,863,929,916,891,972,938,774,830,809,729,789,835,894,908,914,864,841,711,642,579,564,501,444,415,405,396,417,388,452,522,485,451,445,423,307,305,304,298,285,259,339,395,385,340,334,250,143,130,126,105,73,67,50,37,32,30,33,28,30,32,32,34,36
fingersSpread,1,5,33,36,35,77,96,101,106,115,100,85,81,74,59,48,54,63,93,116,127,150,188,226,245,268,311,372,376,452,488,508,485,478,488,480,565,562,645,709,803,759,769,850,795,703,784,770,616,660,743,712,756,761,711,744,681,684,696,747,678,717,730,821,791,769,795,747,629,586,523,396,393,368,327,339,287,232,195,207,217,251,247,243,237,210,168,210,212,188,208,206,154,151,149,82,57,51,36,34,32,35,33,31,29,33,28,30,29,27,24,26,24,30,36
fingersSpread,1,6,21,21,21,22,23,24,25,26,23,22,25,23,25,26,27,28,31,45,73,78,79,79,105,115,120,126,134,115,90,92,87,88,107,111,118,155,168,169,182,231,216,248,316,373,394,397,456,440,427,465,470,410,454,461,434,459,466,432,419,454,605,645,715,766,816,735,711,714,652,577,586,590,523,566,522,497,503,531,556,657,684,725,766,716,655,641,579,482,518,473,543,542,512,471,463,292,272,269,248,238,215,189,141,136,133,115,74,78,73,62,54,52,78,150,154,155,157,152,99,94,92,94,72,46,43,71,76,80,79,80,60,41,36,34,33,25,29
fingersSpread,1,7,202,204,201,123,92,68,61,62,55,59,56,60,52,66,84,89,94,95,95,85,92,90,96,116,126,130,146,152,136,146,139,126,135,136,131,201,202,211,254,306,290,311,323,315,290,458,551,550,565,566,457,487,523,542,584,631,546,581,605,625,663,698,655,627,598,511,554,555,546,550,605,517,515,598,586,554,553,586,548,582,587,617,599,588,550,528,485,490,418,407,388,381,325,330,304,243,220,186,178,220,339,359,372,384,361,266,250,231,201,304,243,220,168,138,128,134,127,119,132,113,112,115,130,134,121,108,103,74,31,28,26,24,26,25,23,23,24,20,21,23,26,24,26
fingersSpread,1,8,23,23,27,25,23,24,25,24,25,29,39,40,40,41,39,41,43,47,63,89,111,120,133,143,134,150,156,158,149,154,137,132,135,153,151,163,163,177,215,222,225,237,250,220,239,250,270,265,305,349,419,425,449,467,445,465,469,481,465,478,547,575,587,606,657,652,718,702,738,700,611,534,534,475,529,516,519,544,596,621,644,615,608,530,479,438,517,589,621,602,617,559,451,491,493,510,505,518,525,529,535,543,584,591,568,535,517,528,445,420,403,385,234,169,151,173,203,222,224,210,181,139,90,86,81,119,161,162,165,173,182,148,182,189,178,143,140,84,54,32,32,28,27,24,33,31,33,36,36,30
fingersSpread,1,9,37,39,43,54,68,73,77,82,81,92,89,85,81,78,61,65,73,75,82,84,103,126,134,165,168,177,171,190,172,254,328,374,384,391,364,304,274,357,373,408,419,450,407,442,463,500,513,539,530,566,559,549,540,585,570,595,699,728,696,695,672,564,549,574,574,543,543,539,507,516,516,493,451,424,331,371,382,371,373,381,377,344,368,376,367,411,437,440,464,471,419,392,345,336,385,366,393,398,354,280,286,250,233,219,182,143,94,92,105,132,136,135,129,119,169,191,194,201,203,146,117,109,86,73,55,31,27,24,21,25,25,26,28,29,25,21,21,24,24,25,26
waveOut,1,0,26,25,24,24,24,27,60,105,156,182,197,217,203,186,168,200,186,198,221,257,258,280,307,296,309,375,405,398,440,497,583,621,708,770,807,776,790,835,907,949,964,965,1005,1061,1069,1117,1150,1127,1012,960,881,850,909,926,995,981,1023,944,999,945,991,953,990,885,905,885,895,806,835,800,803,798,868,913,970,978,1002,943,905,787,708,602,559,457,448,447,400,369,539,658,672,839,982,1058,1083,1100,974,816,573,310,138,265,575,598,607,659,621,409,399,428,368,348,282,246,166,102,95,89,87,83,79,66,53,44,27,25
waveOut,1,1,133,147,149,156,184,203,215,246,252,308,310,322,394,479,518,561,579,552,492,546,525,555,699,837,838,940,966,903,844,878,943,1003,1017,1042,988,877,811,855,922,981,1031,1155,1141,1086,1174,1133,1035,1082,1173,1061,1084,1146,1182,1119,1190,1188,1130,1056,991,935,920,911,939,1025,1048,1106,1211,1202,1140,1102,1027,916,864,959,910,906,829,812,689,706,638,618,571,471,366,356,512,507,540,566,611,483,555,559,546,545,563,756,859,980,979,988,786,651,505,525,476,572,743,783,751,739,670,473,269,207,197,167,79
waveOut,1,2,148,146,157,154,187,181,203,207,230,240,261,339,364,378,395,384,355,350,366,381,380,386,408,393,469,565,564,586,655,590,575,668,721,780,858,902,944,990,991,1030,1046,1005,984,973,951,963,986,964,1008,1021,989,1025,1015,919,955,1043,1000,994,1008,941,816,795,820,892,882,861,879,869,812,820,823,753,707,675,576,533,491,457,409,494,578,585,621,727,838,801,788,740,601,470,403,392,403,421,207,194,228,214,178,176,246,239,250,251,254,175,147,148,170,166,156,144,108,53,46,95,109,110,117,127,97,80,76,64
waveOut,1,3,50,78,85,85,86,117,122,123,125,142,122,117,136,154,178,197,197,211,255,235,235,245,248,220,234,273,358,418,490,505,566,579,576,586,600,682,808,833,848,935,931,986,1093,1189,1130,1063,1008,926,811,814,948,899,894,936,984,969,1015,1051,1024,1087,1007,962,921,934,876,945,990,1036,1035,1007,1009,1057,1022,999,995,966,857,912,926,952,924,855,730,697,608,625,628,617,593,560,454,451,406,440,618,620,637,816,850,732,732,702,474,245,218,233,252,244,247,270,234,189,198,202,167,157,151,116,107,121,131,127
waveOut,1,4,42,38,33,41,40,42,83,91,147,183,193,188,188,151,141,176,182,202,211,230,206,213,207,212,193,191,199,221,274,288,302,302,294,274,248,293,298,331,307,318,265,256,230,281,282,297,302,345,381,433,468,488,562,623,613,609,724,743,771,847,949,912,895,958,917,878,934,965,964,1033,974,877,823,747,701,834,891,952,955,1008,986,979,953,934,940,903,876,915,894,911,897,910,917,937,913,901,891,848,822,769,779,808,721,733,691,637,569,588,509,420,442,416,478,523,538,539,581,552,541,512,464,394,307,207,190,190,178,161,136,147,139,132,123,118,87,85,99,104,125,187,226,230,229,216,151,90,61,60,61,62,44,41
waveOut,1,5,92,107,106,102,116,124,137,159,186,200,197,198,201,237,310,374,372,404,404,403,387,480,478,499,582,566,528,569,541,443,473,480,436,444,553,635,710,790,815,822,766,719,647,678,585,701,673,852,884,916,863,884,800,819,821,862,862,819,803,860,928,950,975,961,919,850,831,813,850,880,856,893,926,907,852,841,852,870,862,856,816,751,620,511,465,460,398,419,407,452,516,548,533,568,551,594,563,612,647,638,533,528,425,293,304,274,249,241,236,160,256,385,473,495,496,448,341,208,132,111,95,79,78,90,92,96,93,86
waveOut,1,6,41,38,35,35,36,35,31,36,44,68,71,86,99,125,147,150,151,147,148,133,140,163,161,144,144,158,162,193,208,203,198,181,151,131,162,165,216,230,234,257,275,258,290,308,294,327,452,448,486,511,573,550,634,669,732,751,735,767,789,790,795,867,804,812,770,850,804,837,806,913,799,871,878,925,922,1001,1015,1066,1091,1150,1155,1126,1154,1167,1052,1034,993,1006,939,991,949,964,849,839,750,729,676,622,570,560,540,512,515,522,486,436,460,414,416,538,571,526,520,469,268,194,212,221,208,208,156,153,181,177,175,177,146,78,69,66,44,47,46,45,44,40,29
waveOut,1,7,36,33,35,32,40,38,38,36,59,84,88,103,122,142,130,150,151,170,166,173,159,163,165,164,160,164,196,180,167,217,230,217,221,240,219,223,239,279,277,291,290,321,403,406,440,498,493,469,494,519,563,578,573,584,612,597,668,677,672,717,778,743,746,802,761,768,867,923,951,948,896,809,835,817,822,804,868,757,706,705,709,631,722,717,738,824,855,839,847,825,769,756,752,806,842,835,793,753,653,577,499,448,394,386,395,409,394,402,409,342,385,468,482,473,636,689,637,614,603,400,160,143,272,285,325,354,359,259,245,200,143,137,143,135,125,116,111
waveOut,1,8,79,82,89,90,90,110,114,111,121,120,120,123,132,146,160,166,173,198,194,243,285,331,347,362,364,385,388,493,543,547,576,599,573,595,617,668,712,731,797,946,970,978,989,916,837,862,865,893,948,921,910,1022,1024,992,1080,1026,930,965,989,929,929,917,851,863,792,767,738,709,822,839,881,873,861,685,646,608,603,578,562,560,492,440,446,458,442,475,463,455,397,358,302,271,209,235,236,230,212,191,153,134,130,157,165,193,196,249,423,583,587,583,564,439,160,101,97,81,74,72,73,64,70,71
waveOut,1,9,40,40,40,34,34,33,35,36,34,32,42,43,42,43,44,32,33,32,29,31,35,88,94,143,154,183,173,176,174,170,150,147,179,155,167,198,198,181,181,173,148,154,144,142,144,128,154,203,228,229,232,219,204,216,251,259,292,281,275,287,389,452,490,512,517,593,552,583,574,568,491,569,576,645,713,706,676,693,682,695,720,809,765,768,788,764,703,699,682,716,777,782,873,869,881,839,792,706,731,576,521,493,452,344,428,491,534,547,574,586,603,584,568,532,423,281,213,205,236,224,238,233,209,200,217,206,225,273,238,237,239,213,146,182,166,156,150,155,120,126,112
waveIn,1,0,74,89,89,81,73,79,87,83,84,105,126,187,204,229,295,295,386,531,563,577,591,538,429,440,490,516,543,532,501,397,413,466,659,753,801,833,833,740,765,779,764,760,782,730,673,670,727,758,709,728,728,724,760,788,787,762,713,579,568,541,512,424,362,257,224,183,163,155,134,127,123,97,82,68,120,132,141,148,148,108,87,80,80,86,97,106,104,102,113,102,92,86,76,53,83,115,128,128,128,109,81,59,91,87,89,96,102,81,82,82,70,60,51
waveIn,1,1,52,52,55,51,40,62,154,179,180,184,245,228,215,219,223,194,202,235,253,294,319,362,367,491,597,593,626,684,609,540,664,667,700,740,751,691,679,636,615,623,570,641,654,692,645,709,649,641,579,625,653,643,666,669,712,670,677,644,666,662,661,657,647,679,655,670,675,689,666,610,613,657,634,587,583,540,441,382,365,336,221,137,116,108,83,84,72,88,93,95,92,101,83,82,83,78,70,72,68,68,72,67,67,73,86,83,79,84,76,62,63,64,62,64,58,62,68
waveIn,1,2,55,57,52,56,45,47,46,46,42,47,45,46,45,69,69,68,71,73,57,50,58,57,57,53,55,48,51,52,96,113,128,129,151,145,155,194,210,210,243,277,350,447,457,490,589,617,583,621,649,589,573,581,570,531,532,601,610,624,632,660,584,559,606,588,587,586,581,532,545,505,535,527,491,481,473,388,442,518,507,467,466,404,271,265,259,231,221,192,133,133,133,102,99,97,80,63,57,69,72,72,71,70,57,71,77,78,81,84,70,74,71,65,61,61,52,56,59,60,60,62,83,80,90,89,83,85,88
waveIn,1,3,42,46,57,63,67,65,65,62,59,50,52,50,275,330,340,341,343,221,128,105,110,106,84,108,136,156,185,206,221,257,312,307,320,376,362,376,415,461,490,555,531,523,565,568,530,553,663,606,629,638,647,599,638,658,686,674,602,543,470,397,385,405,423,397,395,373,422,412,386,392,438,362,349,326,307,217,218,201,190,166,139,131,131,129,120,134,125,122,118,89,66,64,51,53,57,55,64,71,72,78,80,75,73,71,64,64,66,73,74,78,78,80,72,71,69,74,67,66,79,75,71,70,72,59,58,59,59
waveIn,1,4,61,60,61,61,44,45,45,44,49,45,46,45,46,49,52,51,95,106,120,126,127,103,90,69,63,76,77,94,111,121,145,220,274,271,267,258,197,118,198,204,201,229,259,212,229,232,212,189,223,237,260,301,378,441,441,201,229,468,545,537,508,531,558,507,531,511,423,343,349,401,399,420,428,399,300,311,274,263,258,336,400,440,521,522,479,424,394,295,292,317,368,370,389,425,418,407,416,384,332,297,224,166,135,111,86,81,61,66,66,70,65,69,68,87,96,103,104,111,110,117,122,134,130,122,109,101,79,77,79,84,78,88,95,86,77,81,72,63,70,70,65,62,51,41,46,45,56,67,67,64
waveIn,1,5,45,46,57,55,60,61,75,64,124,154,165,164,166,128,95,121,175,187,195,201,209,167,157,153,166,228,333,394,502,524,518,494,485,482,518,538,553,538,579,545,511,485,517,377,427,469,485,454,505,451,477,504,540,510,572,571,540,523,525,525,526,529,518,574,591,530,539,524,470,403,450,447,455,421,382,377,394,388,413,430,402,399,414,468,466,467,408,375,264,214,153,150,144,104,95,105,97,99,108,104,89,90,83,67,70,73,67,79,77,73,72,79,69,79,81,80,70,70,66,79,79,84,82,80,69,73,67,61,55,51,52,62,68,70,69,65,66,62
waveIn,1,6,50,48,51,57,49,52,55,52,49,51,50,45,49,46,42,42,45,46,48,49,48,50,50,51,58,67,68,66,70,64,53,54,52,44,53,60,58,73,76,86,114,155,176,202,217,288,272,273,260,274,218,258,293,311,311,323,349,383,373,384,459,443,416,452,457,395,427,470,512,512,563,548,567,531,512,434,413,312,288,314,323,331,393,404,428,466,466,458,433,391,327,296,221,209,193,186,184,135,119,111,119,118,120,111,105,74,68,70,85,83,88,93,93,104,104,97,92,91,65,66,67,68,63,64,69,74,70,83,93,91,89,95,100,83,82,87,102,88,93,93,92,72,80,82,84,76,73,98,94,90,93,94
waveIn,1,7,66,81,102,116,123,125,113,94,76,63,63,62,56,62,63,60,87,96,92,94,94,73,63,65,63,71,75,75,79,78,89,86,96,97,112,106,108,111,205,243,255,267,289,273,251,281,289,299,299,291,254,267,244,397,416,441,507,526,419,421,418,351,398,396,429,430,474,423,454,476,483,440,454,413,423,404,385,363,368,304,406,435,442,512,496,418,379,353,230,187,155,141,135,110,107,134,127,128,127,133,92,78,71,79,68,70,74,73,65,58,53,66,77,77,81,80,76,64,70,70,84,79,92,89,93,83,83,67,62,48,53,46,45,45,58,51,55,53,50,40,45,43,44,58,58,65,73,74,79
waveIn,1,8,41,38,42,38,48,46,45,45,47,44,45,47,49,50,52,63,65,60,74,115,121,124,130,131,104,109,135,147,165,183,197,207,208,210,212,211,241,259,267,307,305,295,306,342,326,336,357,343,323,315,311,295,288,265,274,282,353,428,435,423,420,394,325,326,326,334,315,300,307,345,345,312,332,321,300,302,296,284,348,335,329,325,308,216,193,144,145,248,244,250,252,262,178,172,156,152,107,73,91,90,90,88,86,65,66,71,76,79,70,67,67,65,67,71,86,87,92,90,88,73,71,58,56,77,78,74,75,76,63,67,65,68,66,68,76,78,89,89,79,73,72,74,75,76,80,88,71,75,77
waveIn,1,9,43,49,50,52,56,53,61,68,68,66,69,61,48,45,42,127,158,161,162,163,115,69,72,72,72,69,74,71,73,77,83,76,81,86,83,73,82,74,72,71,88,84,98,110,110,101,97,95,93,96,92,106,113,130,132,137,130,125,182,194,208,219,227,191,217,207,216,213,207,199,212,202,217,268,335,340,359,355,314,288,390,406,416,427,424,366,354,350,367,329,457,459,468,490,515,422,414,396,352,349,289,279,280,267,235,228,226,212,217,185,176,144,139,107,94,72,62,63,71,70,88,96,93,82,81,60,59,60,58,67,68,57,62,76,74,75,92,91,80,76,76,61,67,77,79,85,91,87,94,92,84,82,80,80,88,88,81,78,92,90,100,99,101,75,69,68
doubleTap,1,0,28,31,32,35,37,42,41,47,49,48,44,45,49,49,51,50,56,155,402,440,513,523,512,368,344,265,271,293,377,469,476,522,522,472,395,392,315,292,269,233,180,163,144,147,116,101,101,91,60,63,59,58,55,51,50,55,80,86,90,88,92,75,72,68,74,67,59,67,67,64,65,66,55,53,48,54
doubleTap,1,1,45,44,47,39,34,33,35,34,31,40,53,229,235,244,249,264,157,169,170,163,241,403,495,534,547,527,431,323,255,228,195,156,140,123,121,103,82,73,84,72,81,115,117,109,113,108,75,72,70,74,76,78,71,74,73,71,67
doubleTap,1,2,32,33,32,37,35,39,42,143,224,236,242,246,226,186,208,207,214,206,285,420,564,707,736,708,655,543,333,277,261,197,179,182,142,134,103,82,69,67,69,74,74,70,76,67,64,60,58,47,51,47,74,81,84,81,89,73,66,61,65,56,51,42,43
doubleTap,1,3,47,45,47,47,46,33,39,39,39,38,38,37,33,37,44,44,38,40,41,179,320,372,392,397,371,278,241,211,212,248,425,502,535,544,548,465,366,325,312,261,174,159,132,111,101,67,63,69,71,64,62,62,59,60,55,65,61,60,53,63,55,65,65,69,60,58,50,52,49,53,53,50,45,42,40,46,46,50,52,53,46,47,43,44,39,45,45,46,41,41
doubleTap,1,4,39,39,39,37,41,40,54,211,231,340,349,359,309,304,187,176,172,286,320,495,529,536,496,492,318,288,296,277,239,231,197,142,127,123,116,104,104,86,87,86,85,87,84,69,59,70,66,80,76,78,72,71,63,63,66,56,82,76,77,73,93,76,76,77,79,62,57,57,53,64,57,55,53,53,59,61,62,66
doubleTap,1,5,44,45,44,47,44,41,41,40,35,38,37,37,33,38,36,34,39,154,212,222,228,230,191,133,126,118,120,110,158,502,529,560,567,563,328,291,236,218,222,183,170,149,140,85,59,53,78,83,92,90,88,69,61,47,47,61,59,61,60,70,67,65,67,87,80,71,70,68,44,43,44,46,42,43,37,35,38,46,42,42,46,44,40,39,41
doubleTap,1,6,34,36,35,34,36,34,32,34,40,40,39,37,37,28,27,30,30,30,37,44,58,62,63,71,86,96,117,123,127,189,273,421,448,471,464,450,330,302,265,256,200,171,157,150,112,93,89,78,97,94,98,84,84,53,51,43,42,60,62,66,65,69,52,50,47,48,47,54,55,55,51,47,39,40,35,37,52,52,55,57,71,63,60,59,61
doubleTap,1,7,31,30,28,28,32,38,70,76,77,77,74,59,66,81,97,114,113,116,343,446,475,478,489,392,278,237,242,221,176,157,125,100,85,75,70,78,72,84,70,74,66,78,71,71,65,65,60,52,56,57,59,48,57,57,65,62,63,69,66,57,59,66,56,54,56,56,49,44,45,48,45,47,44,57,55,56,56,59,46,46,50,53
doubleTap,1,8,34,33,28,33,33,32,122,233,259,262,267,244,167,138,138,132,136,127,320,484,514,595,613,549,414,389,252,204,169,164,130,107,80,84,79,92,90,105,103,101,89,90,83,68,60,58,55,37,35,40,43,48,46,46,44,40,33,32,31,26,28,28,25,30,32,35,34,40,39,40,37,41,37
doubleTap,1,9,25,28,29,35,35,35,34,35,32,31,32,31,29,29,40,198,211,220,226,229,132,121,107,99,113,128,246,358,372,379,383,335,231,207,186,164,130,90,87,87,90,87,90,90,81,67,57,54,48,44,49,46,43,43,50,50,52,56,57,49,51,48,43,43,43,41,40,49,48,46,44,44,37,37,41,42,43,37,41,39,37,38,38,38
fist,2,0
fist,2,1
fist,2,0,81,87,87,84,85,79,71,62,76,74,85,96,95,90,87,89,108,108,105,105,94,72,78,74,74,84,90,86,86,108,121,111,114,115,101,98,103,98,95,90,66,52,52,53,75,75,74,78,99,83,81,93,91,66,66,70,59,59,66,65,61,55,59,59,69,71,70,69,64,53,66,72,78,91,95,92,114,114,124,128,155,182,191,189,225,230,257,283,327,384,386,377,402,391,334,363,366,333,366,367,374,385,413,397,407,386,369,362,392,428,421,402,383,336,286,268,309,306,302,335,379,381,372,402,432,436,410,408,358,245,151,131,117,91,92,89,88,80,119,131,130,128,131,104,147,154,151,150,149,99,86,91,100,115,170,180,183,189,187,141,173,184,206,224,255,256,281,284,276,256,275,269,266,262,253,217,187,151,156,230,233,263,286,282,238,227,218,189,188,191,189,149,152,164,143
fist,2,1,125,113,114,126,130,117,115,118,154,145,142,148,146,92,106,153,150,149,153,144,91,84,83,72,91,107,108,124,127,135,182,186,188,192,204,191,232,227,247,263,270,243,251,236,261,267,282,317,332,335,376,404,408,444,539,584,586,746,740,685,667,676,637,630,696,712,714,665,702,632,569,610,567,556,554,580,495,461,468,463,427,437,407,332,292,273,243,224,185,177,148,141,123,127,120,124,118,113,106,96,98,100,110,108,121,131,142,156,179,194,203,201,199,188,185,170,167,168,187,185,201,222,214,188,178,159,144,153,164,176,173,161,148,151,140,145,140,136,130,110,112,145,153,148,162,160,139,145
fist,2,2,92,91,95,101,100,99,115,113,106,90,87,116,117,121,118,119,69,68,59,60,59,59,63,71,78,85,132,145,148,151,173,157,147,152,153,134,162,175,181,193,210,207,214,211,220,230,258,268,308,306,309,293,300,300,340,328,335,358,342,317,337,353,366,380,388,454,513,497,496,537,490,510,546,565,518,502,385,322,273,281,298,299,298,310,312,323,328,308,280,246,184,163,155,124,111,104,109,96,96,113,125,135,131,134,143,144,136,135,137,142,131,126,141,189,229,256,279,325,380,369,355,347,314,281,267,269,267,271,206,206,208,197,174,185,219,209,206,209,202,172,177,177,168,161,125,123,133,137,134,143,134,124
fist,2,3,147,134,112,107,119,114,135,129,132,142,151,133,133,140,128,113,112,109,95,79,84,84,104,114,112,114,142,165,189,197,207,203,185,161,203,214,237,259,286,283,279,275,253,244,243,266,251,266,268,254,242,244,247,276,340,350,359,398,404,358,391,401,378,364,371,400,440,457,471,475,446,433,436,425,436,415,401,396,415,459,474,573,558,616,675,771,731,732,686,640,590,601,624,669,611,559,493,453,340,331,249,245,214,188,191,191,209,227,226,231,239,205,183,185,159,128,101,93,125,147,150,147,172,150,201,254,267,259,299,279,265,270,271,225,218,180,162,226,230,277,308,307,261,287,230,203,212,219,200,192
fist,2,4,103,99,110,108,131,132,142,145,133,113,137,122,102,118,121,99,136,146,138,132,142,108,98,103,99,72,69,65,82,87,93,94,95,86,93,99,116,131,140,146,166,160,154,144,151,134,140,144,156,162,170,182,187,183,326,338,341,347,387,333,344,349,389,356,315,334,381,369,403,406,393,451,440,442,459,470,385,420,391,398,427,435,446,522,593,618,607,626,626,644,623,665,704,693,644,706,774,792,780,808,766,700,661,656,618,587,537,442,400,315,252,219,193,189,207,203,236,263,265,239,235,203,169,163,202,225,229,225,235,281,285,289,283,274,242,270,268,311,319,358,323,334,322,303,212,213,207,174,171,190,193,183,186,195,169,162,147,129,139,139,126,132,139,118
fist,2,5,64,67,81,80,90,84,87,79,82,85,97,102,120,116,104,106,104,79,79,78,56,59,58,59,58,55,38,62,103,111,116,133,142,125,124,127,167,171,174,185,201,178,190,227,342,356,369,368,375,293,358,391,419,425,454,426,421,535,527,545,545,356,369,536,521,393,481,464,513,554,571,531,544,580,577,588,643,671,667,669,663,595,530,482,513,479,460,481,520,461,458,491,477,370,334,333,273,226,219,221,206,171,221,228,207,248,255,222,283,282,278,396,430,389,393,375,265,189,183,182,254,236,266,296,299,227,240,214,183,177,195,172,176,178,195,188,203,188,205,185,171,159,162,147,142,171
fist,2,6,113,134,159,146,156,163,150,129,125,108,89,82,76,82,71,63,72,80,73,73,75,61,54,53,105,155,161,170,175,163,131,136,133,137,154,160,156,163,162,143,134,138,155,244,279,396,464,484,451,449,372,299,300,319,326,318,320,321,318,330,352,346,355,345,311,311,308,284,289,285,255,244,224,223,227,198,195,168,152,158,160,187,204,189,164,208,184,167,179,181,134,139,183,212,217,246,253,238,227,257,320,345,359,349,342,266,261,237,260,237,238,230,224,195,207,203,170,174,178,169,158,151,147
fist,2,7,128,127,119,110,106,122,124,137,153,146,126,138,129,116,112,119,104,98,89,86,80,113,123,145,149,149,123,114,112,110,127,144,146,167,183,193,203,208,182,202,193,179,180,180,152,160,152,183,184,214,213,229,226,252,273,266,262,254,253,211,210,223,217,207,200,219,227,271,285,300,290,301,299,293,309,332,358,344,357,330,339,324,334,315,357,337,311,290,313,302,291,279,270,239,193,195,214,209,189,209,207,181,184,184,142,128,144,171,183,184,183,162,170,171,183,180,196,219,213,240,340,347,319,327,382,378,375,393,400,330,269,309,301,280,300,296,241,233,246,228,204,215,190
fist,2,8,111,112,105,112,116,107,89,93,81,68,71,68,82,86,86,77,85,90,100,101,101,97,75,79,81,84,80,76,65,88,104,108,127,136,129,163,165,168,191,195,169,209,217,213,223,230,234,247,274,294,313,315,300,273,277,269,264,274,282,267,324,318,333,355,354,348,369,372,370,423,440,447,456,526,534,539,566,570,502,485,430,391,384,353,331,323,275,220,233,158,183,181,175,168,192,178,252,301,311,312,314,298,285,277,293,289,305,312,334,331,336,346,313,287,296,282,214,211,201,174,204,198,218,239,226
fist,2,9,118,113,98,101,90,103,99,137,132,134,119,120,78,112,111,114,119,116,89,88,88,143,146,144,145,153,148,163,165,167,155,134,114,116,115,118,87,85,73,146,181,212,217,218,173,152,113,103,99,101,76,104,137,149,157,201,199,198,206,212,193,193,207,197,190,173,178,163,174,189,233,229,249,265,260,269,273,281,308,372,377,417,399,384,327,346,315,313,367,433,396,407,421,360,290,342,317,457,510,546,517,519,395,333,252,234,213,190,152,141,131,112,110,101,88,76,163,182,241,299,306,274,262,235,164,156,172,175,159,190,193,223,256,256,247,255,221,179,166,138,132,118,117,122,119,114,118,117
fingersSpread,2,0,32,34,35,33,39,45,44,44,44,37,28,26,30,42,48,51,53,51,47,40,51,184,303,344,440,522,644,669,709,688,667,561,495,468,438,442,415,489,472,498,542,645,720,746,765,800,800,796,768,789,803,782,682,721,684,613,638,655,631,698,664,569,529,633,578,590,614,638,565,527,507,470,429,328,305,266,234,230,274,288,272,271,263,175,79,97,93,91,92,83,88,91,90,87,86,51,60,82,90,95,97,98,98,95,97,94
fingersSpread,2,1,74,74,73,66,63,61,58,49,41,41,65,82,94,108,115,118,113,116,110,119,147,213,216,217,213,230,176,200,202,264,318,352,367,468,513,506,533,529,485,415,399,407,409,457,489,483,482,501,463,440,459,554,659,658,723,719,660,579,577,507,556,537,521,506,506,488,490,469,503,556,557,546,540,539,515,457,420,394,329,304,291,276,272,264,161,173,170,171,139,119,69,66,58,51,46,41,40,59,63,63,66,69,66,65,73,77,83,74,72,66,59,48,46,46,45,49,48,44,43,44,39
fingersSpread,2,2,52,48,47,48,42,39,47,44,45,45,70,68,69,70,94,76,72,73,72,47,52,93,169,241,260,265,272,244,217,211,215,221,229,220,258,272,322,335,389,417,474,448,477,491,523,528,530,543,560,512,498,647,761,799,933,1007,960,893,864,815,822,841,816,793,738,614,526,558,537,468,439,495,479,503,484,474,401,316,214,211,203,160,111,115,98,91,80,79,64,54,50,46,42,34,36,36,34,30,29,30,34,58,61,62,61,58,36,39,40,39,40,38,38,37
fingersSpread,2,3,29,27,24,46,54,55,57,65,52,44,46,57,74,78,80,99,251,295,297,304,416,358,357,373,379,264,250,218,211,202,241,327,340,378,417,403,369,371,341,310,324,345,430,469,552,552,584,573,608,562,580,590,550,593,572,580,595,590,499,510,548,516,530,511,503,437,381,449,434,530,528,518,428,513,411,408,414,408,287,257,215,169,158,144,119,82,63,56,51,48,45,38,35,33,30,30,27,27,25,26,25,27,27,28,28,28,31,28
fingersSpread,2,4,96,95,80,83,83,55,55,50,43,53,65,119,240,361,390,417,420,384,299,336,315,316,357,358,307,350,347,303,297,295,249,259,298,316,342,373,377,418,414,387,358,334,262,264,305,328,382,400,411,411,456,575,615,639,640,637,526,634,639,645,642,621,445,452,476,498,606,696,670,685,660,585,487,468,482,555,657,681,723,715,754,658,636,641,600,474,539,528,507,553,532,453,512,472,409,420,431,336,311,283,221,182,157,132,106,98,76,63,89,135,143,143,146,136,97,93,95,92,86,78,74,81,80,84,79,95,88,101,105,119,108,114,104,98,79,81,85,89,112,124,121,117,122,102
fingersSpread,2,5,56,60,61,63,52,47,35,34,30,55,66,80,126,147,145,149,154,123,107,100,90,74,80,146,164,168,231,300,380,395,421,473,449,422,457,514,445,463,454,459,404,520,523,573,553,539,526,644,584,591,628,553,397,409,428,418,455,487,503,493,625,645,643,660,661,505,485,510,502,517,560,579,560,563,572,614,646,674,662,714,752,755,744,748,791,779,755,739,750,639,528,461,411,346,284,262,239,238,194,181,155,144,122,106,65,49,52,48,48,42,49,41,42,42,41,32,40,38,39,39,40,37,44,50,52,56,62,62,57
fingersSpread,2,6,79,83,90,79,83,86,91,82,83,89,84,103,102,110,111,112,113,115,145,142,146,128,142,115,149,153,172,182,195,217,245,264,282,286,261,282,276,290,289,347,357,407,433,474,457,447,402,420,386,445,453,554,641,664,631,656,617,623,643,663,666,712,624,610,621,647,607,625,644,643,638,649,655,720,736,743,783,775,758,717,746,736,725,699,680,579,454,437,357,413,406,424,411,428,387,388,427,413,358,336,321,245,199,171,164,151,174,174,171,169,170,96,84,71,64,56,44,39,37,39,37,38,37,33,27,28,26,24,25,23,21,21,23,23,24
fingersSpread,2,7,101,101,108,119,123,126,144,133,109,105,96,62,55,43,90,130,153,166,173,159,152,135,117,109,101,59,49,49,71,77,87,123,126,133,173,220,228,288,285,286,310,386,347,372,387,349,261,264,249,302,328,326,337,391,405,412,420,446,394,319,330,313,301,309,354,316,340,403,446,432,501,502,453,440,478,467,540,538,544,541,523,528,578,594,679,693,675,737,706,583,544,529,413,523,607,682,722,758,783,727,666,659,600,475,479,489,433,486,512,507,601,643,588,558,569,471,353,354,338,294,235,218,173,156,134,81,64,51,45,38,32,30,30,32,31,31,32
fingersSpread,2,8,40,39,42,42,44,38,41,44,44,41,43,56,56,58,59,69,65,66,64,65,58,81,92,93,93,90,63,51,121,212,407,510,517,517,496,367,239,272,253,262,256,232,193,219,214,295,333,389,402,455,417,432,383,391,357,383,369,442,509,512,514,521,602,577,682,718,770,722,747,712,681,617,669,694,643,656,698,657,622,601,586,591,545,509,518,538,475,444,410,406,358,361,358,370,358,334,322,313,276,277,317,361,358,373,349,312,210,219,166,161,134,120,68,67,54,53,44,42,38,36,30,30,28,34,36,34,35,35,30,27,30,28,25,26,26,28,31,42,43
fingersSpread,2,9,24,25,27,29,38,40,41,48,47,42,42,45,42,44,43,41,38,32,27,25,24,43,46,53,59,61,49,49,41,37,41,40,47,52,59,57,59,53,47,51,49,51,54,62,63,104,104,107,118,184,250,257,263,276,278,254,280,319,318,327,334,347,364,414,427,430,453,433,397,376,405,401,434,462,616,607,621,611,640,532,534,557,612,579,580,579,579,674,728,767,781,808,708,684,671,717,650,669,651,625,586,656,719,803,776,754,705,611,466,487,472,450,395,425,396,464,441,437,388,368,219,190,172,123,90,82,71,64,59,54,46,85,85,90,97,96,63,73,66,55,53,59,43,45
waveOut,2,0,119,119,117,119,94,90,111,110,114,105,103,80,102,103,129,141,142,124,136,125,113,116,133,141,224,241,283,327,333,388,388,464,518,521,494,546,570,660,845,951,997,1023,1010,1083,1105,1122,1131,1133,1032,935,892,966,1075,1049,1076,1131,1064,1027,1064,1106,1077,1147,1070,1023,1044,1094,977,926,876,719,502,440,484,438,400,390,354,257,289,290,288,278,258,210,206,205,205,189,185,184,198,196,238,236,244,235,235,159,178,165
waveOut,2,1,88,91,82,97,104,114,112,118,111,89,92,95,94,89,95,121,148,156,160,157,135,124,133,133,139,184,239,243,251,262,310,385,447,541,659,663,671,708,772,804,913,987,952,885,891,798,858,1023,1160,1184,1274,1218,1226,1245,1283,1310,1278,1183,1109,1050,976,985,1001,1024,963,911,1008,1060,960,1051,1046,978,906,921,855,898,864,829,818,735,693,656,610,545,514,436,369,358,354,337,261,261,229,173,202,235,216,213,209,184,183,180,178,180,217,201,218,219,218,166,159,135,135,132,131,70,53,74,76
waveOut,2,2,93,94,97,84,93,86,85,83,74,67,75,76,83,108,101,106,106,120,141,163,168,180,200,217,242,300,333,386,463,501,589,709,756,770,818,810,762,786,827,883,867,880,884,883,963,1069,1097,1176,1214,1172,1094,1151,1113,1090,1026,1033,977,1002,1077,1153,1165,1244,1280,1190,1131,1151,1076,977,1006,989,981,938,962,948,1050,1005,1047,1019,1015,897,981,922,972,1004,1102,1065,1096,1020,953,900,857,889,928,954,877,870,748,693,639,612,590,564,486,476,432,365,345,311,272,292,262,261,259,227,197,190,188,191,113,81,176,184,183,185,188,104,81,84,78,85,79
waveOut,2,3,30,36,131,140,141,142,143,82,78,95,96,94,82,71,45,37,39,41,46,48,53,53,59,55,62,72,87,235,245,259,325,354,326,367,422,396,443,418,453,511,610,589,621,726,759,730,798,897,871,876,944,983,1025,996,969,943,954,950,1039,1090,1092,1050,986,956,962,987,1045,1024,1032,998,980,933,943,880,859,873,889,1019,1054,1035,983,966,812,742,708,665,544,449,365,323,283,248,219,264,263,234,230,224,122,85,80,67,64,47,44,37,38,32,30,27,28,24,26,26,24,24,24,24,24,25,24,25,22,24
waveOut,2,4,45,45,48,48,47,43,40,57,56,55,62,66,55,59,66,58,57,56,51,41,47,43,39,38,69,75,77,80,86,103,142,162,166,168,151,110,117,140,174,261,340,353,382,404,372,351,364,409,413,480,521,520,520,519,540,509,507,486,567,511,511,351,364,409,674,720,818,914,956,922,1102,1147,1093,1113,1111,1050,974,1054,1109,1137,1137,1260,1273,1251,1249,1166,1095,1011,1077,1090,1154,1141,1138,1070,1093,1109,1100,1102,1084,1038,970,996,954,898,802,740,568,508,467,430,347,270,208,176,168,158,149,148,70,53,41,33,31,30,29,31,31,29,29,29,23,26,26,23,25,24,21,22
waveOut,2,5,38,47,47,48,48,56,57,53,65,61,54,53,54,37,37,34,31,42,42,42,45,42,30,31,35,49,54,57,62,115,156,183,206,213,219,228,257,246,271,291,308,347,419,430,486,505,503,495,572,601,678,842,888,867,935,980,896,1022,1081,1058,1021,1119,1114,1188,1167,1141,1049,1019,955,1071,1173,1195,1212,1229,1140,1069,1123,1040,1043,1020,1078,1032,1032,962,1040,969,893,855,862,839,856,1019,1012,944,836,755,482,530,534,545,518,502,377,378,352,354,325,307,264,201,158,127,151,148,150,147,149,73,69,59,50,39,35,28,28,28,27,25
waveOut,2,6,44,47,52,41,44,44,48,67,73,97,154,230,230,264,290,293,253,277,267,237,252,310,297,301,352,354,356,394,454,463,484,472,455,440,450,483,504,611,767,790,851,865,861,844,892,834,864,860,915,914,971,951,943,851,817,834,842,835,896,848,749,733,764,684,753,795,814,833,839,844,878,942,921,856,825,842,740,768,788,759,678,818,840,840,845,815,654,590,573,592,607,615,541,546,554,544,567,540,554,528,500,431,414,311,229,231,219,211,179,147,84,73,71,70,69,63,57,48,48,48,51,49,58,55,57,53,54,39,50,69,69,71,71,65,52,50,46
waveOut,2,7,35,37,39,45,48,71,82,85,83,82,63,49,47,48,53,56,67,65,62,61,80,72,74,82,105,101,105,182,196,249,288,306,344,436,426,466,500,480,437,483,520,502,588,601,599,639,661,690,839,876,913,1013,1015,921,908,861,805,796,835,873,847,832,850,850,802,891,871,853,810,837,789,799,749,844,910,970,959,988,977,898,794,908,981,927,1036,1126,1060,1064,1102,1104,1072,1133,1053,1021,947,901,812,819,899,850,836,825,822,756,773,806,844,876,1000,1058,1023,987,1023,913,840,868,869,734,675,609,594,525,524,422,421,284,275,243,236,213,223,218,216,214,197,125,98,163,258,269,271,272,239,142,159,159,157,154,143,161,184,190,190,185,138,113,104,98,99,96
waveOut,2,8,68,68,70,71,63,93,120,134,152,174,194,246,256,256,262,290,258,297,308,315,272,276,260,263,280,338,410,456,469,517,568,603,639,803,873,892,974,999,932,916,889,832,809,881,938,991,1029,1090,1106,1121,1141,1102,1058,1050,1059,1027,1064,1148,1126,1075,1169,1176,1104,1107,1131,1083,1006,988,986,928,913,925,954,936,926,883,973,997,976,962,968,843,711,627,560,510,492,468,450,431,269,211,191,228,219,219,222,214,190,186,188,181,180,105,100,89,95,96,97,70,91,85,84,84,82,55,44,49,42,39,40,42,32,32,32,44,42,44,46,47
waveOut,2,9,50,50,56,59,46,47,47,42,34,61,64,66,67,71,59,74,123,135,144,148,160,132,123,114,104,80,90,100,132,145,144,168,169,164,182,220,241,245,281,318,303,281,280,261,195,226,248,255,286,312,356,439,552,582,687,769,901,885,926,875,860,790,885,921,951,971,988,1041,1029,1091,1075,1076,1016,1003,938,995,943,873,879,948,919,898,970,987,901,827,886,868,945,975,1023,1020,1099,976,990,940,938,761,776,736,836,956,1019,1150,1123,1105,1046,991,878,937,934,949,1000,1087,1102,1082,999,1041,906,836,846,840,746,759,753,647,605,573,537,503,494,455,446,446,437,453,437,346,238,263,229,230,219,205,116,111,112,178,217,226,259,257,222,244,242,204,202,195,91,85,87,78,70,72,54,96,100
waveIn,2,0,100,110,119,130,140,138,148,143,155,181,186,208,229,232,227,282,299,292,309,360,338,343,383,409,363,348,367,340,314,331,384,400,433,428,459,426,395,367,371,361,433,435,438,422,389,311,274,303,322,332,320,342,320,326,344,375,381,367,365,330,314,351,370,382,397,398,339,312,288,261,235,262,255,295,315,304,267,278,251,247,251,255,227,205,183,179,185,195,159,148,146,132,124,122,151,150,151,152,149,143,150,158,154,155,149,140,127,130,139,130,121,134,124,125,109
waveIn,2,1,99,93,92,128,153,152,151,151,146,119,136,138,138,108,131,120,141,156,188,214,208,196,211,190,150,157,168,148,147,147,167,186,208,226,226,221,203,183,156,161,175,187,243,261,283,278,293,271,265,285,371,386,420,440,480,436,474,446,440,373,362,320,304,288,297,321,293,372,400,401,406,448,441,429,427,399,346,274,284,282,280,274,267,243,250,242,226,215,190,148,165,170,187,260,294,369,391,414,380,382,295,283,244,232,209,217,200,192,187,167,156,143,147,152,141,128,124,161,152,161,156,150,113,119,120,126,124,118,99,76,116,125,170,189,194,172,170,134,114,110,107
waveIn,2,2,60,64,65,70,79,84,78,87,81,77,95,141,182,202,227,231,252,246,261,258,266,255,259,254,248,234,239,250,247,251,257,257,266,269,286,332,369,355,484,523,536,528,549,471,422,408,391,396,357,374,354,372,353,381,382,393,358,361,369,410,417,451,507,494,449,466,433,359,347,407,372,375,367,388,347,458,466,463,438,424,272,239,223,204,170,143,136,187,195,191,201,236,198,184,192,197,160,147,217,221,239,262,279,238,249,232,212,192,183,159,154,157,148,150,145,155,142,150,169,180,162,160,154
waveIn,2,3,90,98,97,98,95,133,143,149,152,142,117,120,112,113,123,110,81,78,67,48,52,61,78,111,138,158,189,206,217,234,252,232,224,255,269,285,340,376,398,409,412,418,401,376,382,392,394,408,408,405,486,466,452,501,528,485,497,550,510,538,543,551,524,541,487,463,465,454,476,495,496,544,524,475,427,414,348,359,339,339,297,218,194,229,209,194,199,180,135,127,116,80,74,56,51,41,33,31,39,100,165,184,190,193,176,136,138,134,135,138,142,127,125,131,121,109,105,105,120,121
waveIn,2,4,73,76,64,81,88,109,116,116,98,98,79,76,97,110,105,109,124,131,140,141,143,129,108,82,77,88,107,108,109,108,93,59,48,57,88,104,105,104,100,77,74,93,109,120,133,174,201,253,257,279,270,317,288,300,309,334,326,356,379,375,393,364,342,374,437,433,491,520,540,548,561,537,532,473,424,390,385,417,433,419,414,418,370,347,358,371,351,366,418,416,415,411,388,335,317,325,308,312,307,319,282,331,332,326,334,340,289,268,271,263,243,235,247,240,189,178,174,138,123,116,119,105,146,145,176,183,205,186,197,173,165,140,162,170,165,166,171,164,139,144,151,151,129,155,200,198,195,190
waveIn,2,5,142,112,109,104,102,81,78,91,105,107,139,146,140,134,139,112,124,129,131,130,120,103,104,97,87,85,88,89,92,95,100,99,101,100,114,112,105,94,98,74,74,93,87,79,80,82,58,68,98,139,187,275,283,288,290,288,227,274,300,330,349,354,365,421,476,523,561,555,518,477,462,461,443,482,454,467,447,486,537,612,573,608,588,575,523,535,553,567,535,550,556,565,604,594,611,656,593,577,558,498,424,462,383,365,378,372,294,290,277,236,186,199,199,191,223,208,210,224,227,211,223,199,193,177,162,182,181,168,171,197,186,194,195,196,176,180,188,189,192,189,173,158,157,146,131,117,110,126,133,154,158
waveIn,2,6,114,116,90,81,73,75,68,63,64,53,45,41,47,45,50,48,48,50,53,65,67,77,87,97,100,110,120,129,123,129,140,175,190,233,288,293,307,342,324,336,362,382,386,438,440,465,496,506,515,497,463,407,389,360,342,355,344,316,258,285,270,295,404,433,477,512,560,523,549,524,519,493,464,429,437,419,377,400,400,390,360,344,288,261,177,155,137,121,68,64,62,57,61,66,78,92,129,188,210,212,231,218,198,179,178,149,143,106,114,108,134,136,170,161,161,139,138,116,111,107,106
waveIn,2,7,95,88,88,87,106,80,77,76,76,44,41,37,31,28,26,27,27,24,26,29,26,30,31,32,33,34,32,33,32,29,33,36,43,43,45,51,51,50,68,79,94,100,113,120,153,154,174,178,195,208,285,321,383,415,452,421,437,419,419,370,387,370,369,356,378,403,391,366,381,400,383,367,367,365,316,270,279,308,297,323,415,458,460,440,456,374,347,321,315,282,296,260,265,292,288,269,285,279,318,303,309,276,251,151,127,106,104,100,85,118,111,105,122,153,162,168,174,175,187,175,183,186,184,156,145,121,116,105,116,110,140,143,160,145,147,162,164,144,150,151,108,106,133,141,142
waveIn,2,8,81,79,73,96,94,95,90,106,90,87,86,94,102,109,105,126,146,148,152,161,145,145,131,124,131,140,154,182,261,306,372,386,416,378,371,318,297,259,265,229,230,261,298,338,408,517,577,610,620,621,578,549,560,555,538,528,538,549,629,634,643,657,648,599,591,549,529,509,446,505,553,534,501,509,477,436,431,454,520,488,496,480,443,337,304,249,217,182,178,145,133,100,73,57,53,49,45,46,40,37,107,127,148,174,187,170,191,187,221,212,227,206,202,151,169,158,151
waveIn,2,9,138,115,118,118,114,91,91,99,118,115,122,120,107,98,104,106,116,125,161,165,186,225,230,210,229,229,221,290,352,344,354,377,349,349,349,165,186,376,442,475,501,528,627,595,672,737,724,727,771,704,654,630,530,449,400,352,340,397,543,655,677,688,659,556,468,427,418,427,448,393,403,390,390,348,334,316,313,253,221,205,144,104,74,61,51,76,79,116,148,178,170,175,182,164,166,183,198,184,191,181,196,178,176,185,215,188,196,196,186,138,155,151,153,143,141,127,134,128,165,166,160,145,139
doubleTap,2,0,56,56,58,47,48,42,42,47,56,57,55,58,51,43,45,43,39,47,49,49,51,54,51,53,51,52,51,57,62,64,68,104,151,153,164,207,257,238,249,272,270,300,353,434,427,469,457,433,352,343,257,187,137,121,112,110,106,104,109,109,111,99,108,96,92,88,97,90,80,88,92,90,94,97,92,82,80,75,79,71,77,70,70,62,61,70,69,63,71,75,78,79,77,75,75,74,74,89,100,98,92,95,99,85,87,83,87,70,72,70,77,79,79,103,107,102,92,91,68,62,72,71,73,71,77,70,83,80,78,73,66,54,55,54,53,54,61,58,62,63,70,61,67,61,65,56,63,63,60,55,54,47,49,52,52,55,54,97,120,167,225,248,290,332,389,376,397,377,338,263,254,253,279,379,440,473,472,466,426,419,546,558,542,523,473,281,267,267,260,297,277,222,219,204,136,139,157,157,152,152,137,100,87,89,114,131,157,177,175,165,162,157,134,142,134,125,108,117,107,109,112,98,99,102,106,95,98,96,93,96,96,97,95,95,86,95,90,83,85,88,82,85
doubleTap,2,1,38,32,39,43,45,48,47,47,51,51,51,54,52,47,46,49,50,48,45,44,50,56,60,66,81,79,110,142,148,150,156,147,140,167,172,178,172,158,122,115,107,115,166,212,484,521,589,658,679,564,549,488,393,335,290,326,371,416,620,735,758,782,806,726,649,630,580,515,430,372,308,274,243,233,186,160,153,179,175,213,216,217,189,183,174,169,165,176,185,162,166,172,158,142,115,134,132,130,123,122,101,95,102,97,95,96,96,84,87
doubleTap,2,2,72,77,85,81,63,53,52,40,40,42,62,61,73,78,78,64,66,66,65,76,85,83,74,71,66,56,62,66,67,67,69,69,86,88,94,110,121,147,175,173,176,407,516,531,556,622,546,478,469,450,352,283,328,342,418,488,630,627,769,850,897,849,824,683,524,372,267,252,257,250,237,230,217,234,244,255,252,258,228,236,237,239,224,228,210,195,170,186,179,194,189,189,177,175,165,161,173,162,170,158,182,168,165,142,138,99,115,119,134,135,149,142,162,160,157,148,164,146,138,139
doubleTap,2,3,102,111,148,154,150,145,140,134,126,125,133,134,98,118,124,121,113,119,102,104,110,114,126,119,111,97,95,71,92,89,93,87,89,66,67,71,111,105,105,105,108,78,78,87,86,74,78,76,73,82,137,163,214,226,270,320,374,409,410,387,405,550,553,589,631,600,485,493,472,423,411,333,244,180,154,169,167,152,159,188,159,165,166,161,132,129,134,125,142,135,152,141,158,152,162,138,137,128,116,94,93,104,96,97,114,121,135,134,140,123,128,98,95,105,104,96,103,135,118,131,130,139,116,114,117,114
doubleTap,2,4,96,101,85,85,87,84,76,75,79,79,80,74,86,85,87,84,86,53,53,58,78,102,108,115,122,111,102,98,91,80,87,72,71,71,69,60,77,144,188,325,347,380,462,507,470,457,449,353,369,447,470,470,533,531,458,446,449,374,281,232,225,196,177,166,173,167,148,142,129,123,109,103,110,143,149,157,160,169,150,144,127,117,112,108,101,94,98,100,102,99,98,95,94,97,130,148,146,142,132,137,140,144,149,163,158,144,142
doubleTap,2,5
doubleTap,2,6,85,88,97,85,77,79,76,60,52,57,57,60,66,77,78,80,81,88,80,77,71,68,47,37,35,62,77,99,122,163,189,188,191,193,165,128,123,153,211,267,291,320,336,312,286,264,251,277,352,417,477,528,524,486,456,461,392,352,327,305,190,181,184,179,116,106,128,124,142,144,144,125,148,128,147,167,177,158,161,145,139,122,124,122,131,114,117,109,105,97,93,97,98,100,88,89,80,70,69,71,73,88,88,88,92,98,104,142,147,149,151,148,121,128,151,145,137,129,112,65,66
doubleTap,2,7,51,56,60,90,108,117,134,133,121,128,132,123,128,138,119,107,99,93,74,70,78,81,85,106,110,115,116,111,96,113,113,130,147,189,248,289,308,345,390,359,325,319,335,301,324,344,360,434,436,477,493,487,405,379,293,264,233,176,157,171,129,125,128,128,136,131,128,131,129,114,122,122,121,137,127,119,118,120,97,108,110,137,127,124,119,137,116,116,117,113,104,99,95,103,106,104,106,105,110,104,109,101,116,106,132,118,139,128,137,116,123,112,114,112,110,119
doubleTap,2,8,102,98,102,80,89,69,68,75,79,67,69,62,52,79,127,149,157,182,216,221,229,228,219,240,238,244,264,338,363,399,437,454,445,418,382,334,303,245,204,185,180,165,139,136,152,160,162,170,192,176,164,172,167,143,147,138,134,131,130,127,154,146,143,138,141,97,88,96,103,99,111,121,108,123,125,115,116,120,136,136,137,145,143,104,101,100,67,83,81,110,109,114,103,103,76,84,88,88,93,93,87
doubleTap,2,9,76,76,72,71,82,80,81,82,94,83,85,85,113,114,114,119,118,108,94,93,91,88,65,70,84,92,91,92,107,98,108,124,127,109,107,87,92,87,91,99,103,84,117,230,245,246,291,294,244,278,304,308,389,470,627,693,694,670,659,513,429,428,395,306,260,227,167,159,144,209,194,194,196,217,158,156,141,136,120,116,119,120,138,119,122,123,129,115,112,111,96,150,152,158,152,155,116,107,121,123,125,105,103,101,98,99,102,105,133,156,179,236,262,288,290,281,235,230,204,279,415,508,535,652,679,670,621,627,500,419,314,282,204,229,226,215,210,192,137,139,134,145,180,204,208,206,201,182,157,149,162,155,136,137,130,119,133,137,128,128,119,112,115,126,118,145,140,134,132
fist,3,0,92,96,94,84,82,123,190,235,439,481,516,504,499,365,320,259,267,316,417,617,667,822,924,909,993,1213,1123,1028,1003,799,320,288,275,267,268,238,254,255,244,232,234,225,230,227,240,246,248,249,269,268,263,251,246,231,236,230,227,230,250,253,254,259,261,246,240,240,230,225,212,221,217,206,184,168,247,614,975,1177,1429,1475,1385,1181,1046,685,644,600,561,440,410,238,222,255,267,262,249,252,211,163,166,149,133,139,137,156,153,166,163,159,148,147,141,134,138,123,130
fist,3,1,72,70,69,64,62,59,59,61,61,55,56,53,50,47,49,49,53,58,64,64,62,58,59,80,91,110,131,136,132,127,120,103,112,112,118,147,181,226,228,238,249,297,319,339,346,387,388,361,363,434,440,501,607,697,733,871,886,827,811,814,895,1016,1020,978,929,689,367,325,304,278,270,270,266,252,249,237,234,245,267,281,293,305,301,289,260,227,181,178,322,694,1127,1358,1444,1440,1320,1069,795,655,644,678,546,524,506,510,446,470,498,493,442,445,418,336,303,308,241,226,223,216,194,197,139,133,148,146,142,198,195,186,178,184,117,118,114,116,99,102,113,106,119,124
fist,3,2,63,63,73,73,76,86,90,81,85,84,79,71,71,73,71,60,63,59,50,65,72,77,86,96,90,90,86,78,62,63,62,62,58,64,67,66,67,72,99,105,135,141,144,133,133,131,138,181,179,181,171,187,159,161,158,157,162,173,185,197,230,268,299,338,389,470,550,650,696,744,774,755,825,969,1082,1023,991,856,629,243,272,270,279,272,290,267,274,285,294,302,295,291,300,292,272,273,250,200,174,148,254,757,1066,1351,1593,1708,1562,1390,1140,797,581,583,605,630,632,618,603,558,506,503,412,405,432,428,384,418,403,380,384,428,370,372,348,319,252,236,234,225,195,219,231,225,227,229,214
fist,3,3,80,80,73,76,65,79,83,80,83,95,88,99,97,106,95,96,91,96,82,87,93,103,119,140,144,153,144,144,152,149,138,144,142,177,212,239,242,246,231,223,243,261,327,368,450,466,553,627,690,748,816,799,741,675,553,412,326,269,252,245,269,272,282,269,266,241,249,261,278,278,302,294,271,240,242,198,164,142,119,471,931,1132,1333,1451,1431,1199,1036,797,600,496,534,545,501,463,480,408,339,334,319,276,285,314,391,395,377,393,383,311,323,361,341,323,312,299,220,199,197
fist,3,4,48,53,51,50,58,55,58,60,60,56,61,56,55,57,75,77,78,89,94,86,80,82,70,66,67,71,81,88,94,97,112,113,119,130,135,133,140,145,152,153,184,188,200,208,257,243,308,385,396,458,522,567,844,963,1127,1183,1159,957,835,535,320,277,265,279,270,264,266,263,222,254,250,246,221,226,180,160,145,350,765,1132,1283,1585,1647,1516,1279,1155,695,453,486,514,467,474,479,404,339,351,356,330,374,377,355,329,316,268,259,258,244,238,195,184,198,209,208,211,208,166,166,155,168,148,179,168,181,166,175,152,151,142,140,141,123,119,102,101,89,95,99,98,104,97,95,82,102,93,90,90,113,103,117,119,117,101,100,84,79,88,85,86,85,85,81,91,90,91,89,112,116,115,113,111,103,92,100,102,104,86,96
fist,3,5,59,62,64,59,84,85,91,93,96,80,76,66,63,65,70,67,73,72,70,68,76,70,85,91,85,87,96,94,95,120,114,118,111,107,81,83,84,87,93,127,131,130,126,140,128,134,168,190,222,244,271,278,297,277,305,313,349,419,520,579,608,655,691,704,784,945,900,835,782,636,292,278,304,264,294,290,293,267,268,237,219,232,244,253,238,244,245,238,218,238,241,224,199,199,178,162,164,184,183,184,188,166,141,122,105,326,838,1118,1441,1633,1617,1454,1264,888,469,427,319,291,273,341,333,335,346,353,271,275,255,262,271,297,295,287,292,263,226,255,256,203,210,203,146,180,183,171,160,162,130,122,146,144,152,171,183,176,192,194,171,153,146,123,108,105,111,117
fist,3,6,66,68,71,55,57,71,75,74,75,77,71,69,65,66,63,68,68,69,72,77,79,91,98,96,93,86,70,61,80,90,99,106,118,113,107,122,124,124,130,135,118,123,119,113,113,123,127,144,184,206,237,239,247,241,271,290,348,470,589,680,748,785,737,670,735,803,860,966,1057,962,861,749,591,376,331,270,279,275,250,240,237,202,153,147,140,601,801,1098,1190,1291,1440,1401,1209,1136,1043,597,456,421,413,390,437,425,396,366,363,289,291,311,317,293,295,270,238,217,202,182,212,204,195,197,204,183,186,201,186,202,204,209,204,224,199,197,186,172
fist,3,7,65,65,67,64,59,60,51,56,65,71,76,81,77,76,73,68,66,67,61,61,61,62,64,72,72,73,75,82,79,77,76,72,68,60,73,99,97,109,114,108,84,88,68,81,96,104,110,119,136,150,173,185,203,215,209,246,352,367,386,406,385,350,351,315,285,279,260,340,429,481,496,521,788,888,1024,1070,1061,854,710,454,323,279,246,225,229,216,194,205,213,192,185,195,171,165,151,151,591,818,1137,1234,1351,1434,1419,1196,1125,1017,703,477,447,380,300,285,292,286,277,282,299,308,330,395,397,458,464,490,476,469,385,406,356,328,302,311,240,218,180,176,144,140,141,137,134
fist,3,8,97,105,102,102,100,90,85,81,84,83,89,93,90,89,84,72,68,69,65,63,64,64,63,72,75,79,77,94,94,92,91,90,70,67,76,76,81,86,81,80,83,75,70,70,69,64,65,79,82,82,82,82,92,97,95,100,117,114,114,127,138,141,141,149,156,168,198,210,209,224,212,188,199,202,178,195,218,212,218,286,432,463,612,747,751,808,841,771,695,706,597,619,582,532,502,477,347,340,306,286,256,672,916,1152,1466,1549,1427,1348,1160,725,541,533,370,385,388,389,385,433,444,439,422,429,376,368,365,368,339,321,313,299,269,263,263,220,232,242,255,226,217,206,203,167
fist,3,9,55,58,56,57,57,56,59,62,64,69,65,62,60,61,58,56,56,55,56,60,64,69,76,72,73,71,66,60,57,50,56,64,63,75,93,94,99,110,120,115,121,122,124,126,166,169,206,203,214,207,258,386,432,482,494,494,522,593,659,698,751,717,680,593,539,453,371,286,257,258,234,237,233,220,186,182,152,124,352,882,1230,1475,1640,1847,1745,1530,1322,1124,688,447,442,382,365,349,337,310,300,285,236,251,296,282,272,267,255,228,227,224,227,254,214,205,214,210,179,182,182,185,177,178,161,165,143,141,114,114,99
fingersSpread,3,0,29,28,29,31,29,26,26,26,24,24,28,27,29,29,28,71,113,129,239,388,489,678,879,923,1074,1111,1053,974,958,824,863,999,1046,1108,1121,1124,1060,991,949,984,962,912,890,880,898,992,1048,1079,1120,1156,1056,999,958,949,853,850,899,925,855,763,725,618,571,518,491,390,315,238,209,159,140,133,105,112,111,104,86,104,98,97,95,92,92,91,88,88,113,101,98,110,110,89,103,100,88
fingersSpread,3,1,19,26,29,29,29,28,23,21,22,22,23,23,23,29,37,64,127,188,397,415,419,478,551,484,506,577,598,549,580,635,627,675,691,699,691,818,834,854,955,1022,944,895,924,874,804,829,868,856,879,902,898,861,901,862,847,873,928,949,985,1029,1058,1083,1091,1068,1027,1064,1059,981,918,944,836,903,1006,1087,1045,1082,972,844,714,662,494,391,309,274,284,249,188,164,158,95,90,91,88,84,74,69,54,58,62,53,52,52,45,35,31,26,28,34
fingersSpread,3,2,25,24,23,23,22,21,19,18,22,22,21,22,22,21,21,22,22,21,17,19,19,35,131,249,395,526,589,689,757,761,756,766,766,757,751,785,805,764,749,771,780,812,929,981,1029,989,1043,970,960,1001,1134,1122,1123,1089,1043,964,906,944,1049,1061,1058,1065,1136,1028,1027,1027,1080,997,1029,1110,1111,1073,1164,1245,1149,1179,1173,1119,1102,1160,1111,1144,1095,1072,986,1067,1004,960,881,871,654,598,547,439,319,294,215,164,155,137,130,117,103,92,81,101,111,115,113,103,84,67,57,56,57,53,51,45,36,44,44,43
fingersSpread,3,3,19,22,22,23,23,23,21,20,20,22,22,45,100,114,149,181,204,238,249,262,279,300,296,298,346,408,410,415,457,424,371,388,371,365,474,580,596,688,717,677,689,816,785,753,796,883,810,878,920,963,954,1018,1062,1065,1075,1065,1149,1127,1205,1161,1156,1151,1120,1072,1064,1008,994,960,1023,1065,1152,1079,1150,1088,1190,1218,1181,1170,1211,1065,977,1059,1056,989,1002,989,900,876,863,895,951,938,917,926,863,728,661,564,446,442,354,327,305,320,254,252,253,228,179,146,133,116,116,109,76,63,59,52,53,47,46,48,48,40,39
fingersSpread,3,4,24,26,25,28,25,27,25,28,28,31,30,30,28,24,22,22,24,24,26,24,23,23,51,127,217,294,348,434,502,536,561,628,626,680,739,714,717,738,819,809,894,899,932,877,900,920,963,1016,1010,1066,1047,1153,1070,1055,977,978,783,906,938,920,1024,1070,1014,973,994,894,843,801,810,831,783,789,749,685,562,476,375,359,314,295,273,224,161,159,148,120,101,94,99,88,65,69,66,48,49,55,45,52,55,52,42,41,34,31,32,32,32,26,24,21,25,26,28
fingersSpread,3,5,24,21,21,24,23,22,26,29,27,26,27,25,25,24,26,25,31,35,35,37,44,40,42,60,100,196,200,211,215,321,354,371,398,447,435,510,583,603,647,685,746,829,893,922,962,916,867,900,961,1006,1015,1043,1078,1085,1049,1111,1164,1093,1086,1175,1109,1059,1097,1085,973,1031,955,951,944,952,960,1094,1118,1065,1107,1135,1041,986,1008,965,1028,1034,1083,1101,1105,947,1099,1059,1044,1086,1160,1035,1069,1107,1027,957,965,939,914,958,945,888,870,770,645,552,482,329,277,249,230,203,120,111,105,105,97,92,83
fingersSpread,3,6,22,24,26,24,25,23,23,19,20,19,19,18,23,22,22,21,21,17,17,18,20,21,22,25,25,24,61,66,71,82,88,99,118,121,169,214,241,242,265,262,268,269,274,316,391,415,541,656,683,670,684,734,697,730,845,967,916,946,971,963,932,949,985,991,1017,1045,1191,1183,1188,1151,1128,1084,1097,1083,1140,1130,1034,1073,1150,1081,1139,1290,1257,1200,1276,1261,1111,1107,1084,971,988,1002,1022,1117,1130,1098,1085,1071,976,1025,973,946,861,861,772,750,713,701,625,589,509,451,391,330,268,209,182,163,182,177,178,178,163,128,100,79,69,64,67,56,53,48,47,27,28,27,25,27,26,24,24
fingersSpread,3,7,606,717,792,815,883,894,883,889,900,920,945,954,1035,1126,1140,1180,1155,1075,1074,1053,984,977,1056,1040,1222,1291,1300,1250,1251,1108,1066,1112,1119,1068,1106,1240,1226,1227,1250,1300,1143,1155,1155,1262,1204,1190,1219,1299,1181,1191,1171,1120,1029,1061,1038,1052,985,978,944,785,707,695,571,536,539,516,473,465,397,376,358,336,323,312,320,321,333,305,226,193,181,132,116,126,116,110,107,100,84,80,113,109,105,103,103,66
fingersSpread,3,8,69,71,67,72,74,55,55,54,51,48,45,47,57,53,52,54,50,41,41,40,30,30,32,40,60,74,233,250,259,294,389,347,362,388,375,330,349,410,443,512,502,503,585,634,675,714,819,850,894,916,995,991,937,934,1012,957,876,906,883,763,815,865,908,906,946,897,973,940,1092,1072,1084,1017,986,837,847,921,931,1035,1079,1099,1069,1094,996,898,826,710,647,608,574,505,493,372,309,233,207,171,159,117,100,81,78,81,95,92,88,89,87,70,72,77,66,61,74,81,77,79,77,83,85,82
fingersSpread,3,9,42,44,46,46,45,39,37,34,38,40,40,48,50,46,46,46,38,37,38,45,45,49,50,57,47,46,43,42,29,27,30,32,36,37,41,51,50,47,47,49,56,66,77,83,107,106,107,119,127,132,134,150,139,133,158,157,155,155,168,151,188,186,190,183,185,170,389,408,469,513,561,492,500,485,511,517,576,612,655,647,700,648,689,774,861,896,941,931,958,899,862,856,847,770,917,911,958,975,985,914,922,925,998,991,978,981,978,943,951,973,975,938,900,901,938,974,986,1016,974,858,851,844,827,866,868,765,711,659,558,511,487,450,356,318,289,268,203,192,193,166,164,164,143,122,100,93,83,84,81,65,57,44,38,42,40,36,31,35,31,30,31,31,30
waveOut,3,0,62,62,76,72,76,68,77,67,71,73,73,68,62,62,64,74,70,80,82,80,75,111,121,241,485,583,637,740,837,887,945,985,1154,1202,1202,80,75,1163,1152,1187,1068,1068,1123,1144,1145,1119,1071,994,952,907,902,932,997,979,934,978,959,866,862,964,874,942,977,1032,973,1137,1089,1101,1132,1280,1201,1180,1193,1143,1022,1040,1090,1052,1084,1152,1144,1083,1149,1161,1142,1135,1153,1138,1119,1063,1022,1053,1072,1002,941,879,833,664,625,596,580,438,427,420,381,372,336,299,276,324,298,286,311,312,229,223,202,180,159,191,193,215,199,196,155,149,123,113,110
waveOut,3,1,182,187,201,188,202,217,214,198,218,231,212,230,261,229,213,227,273,303,344,388,430,471,483,556,647,654,634,666,653,718,826,838,841,840,891,851,922,953,1025,987,1057,1045,1067,1081,1058,953,1008,995,911,860,995,1002,1044,1093,1140,1126,1098,1101,1072,1028,953,882,853,896,919,912,990,951,979,978,950,989,1024,986,1034,1068,1018,1045,1044,994,1039,1066,1079,1102,1119,1099,1156,1070,1021,978,898,719,724,642,617,605,552,539,536,516,495,464,379,356,276,262,228,191,178,163,148,154,159,157,163,148,150,129,140,129,137,122,125,104,134,123,126,129,130,104,108,103,91,90,83,96
waveOut,3,2,70,81,88,84,81,91,85,73,67,66,50,42,58,57,63,65,76,95,141,162,169,194,191,191,203,229,248,291,289,287,320,376,400,463,513,590,613,689,739,761,758,902,946,943,1023,1095,1052,1006,1060,994,957,928,924,902,966,956,970,1012,1002,977,1049,1004,991,1033,1053,952,1028,1090,1001,985,970,978,937,988,1012,1112,1079,1001,975,910,834,828,842,939,962,988,1017,1047,938,922,911,862,857,847,862,837,788,844,836,780,755,753,666,680,676,629,604,518,460,411,343,286,256,238,217,209,184,176,190,196,200,189,208,196,225,234,240,220,226,190,180,192,192,193,178,169,149,157,153,189,230,234,220,230,199,159
waveOut,3,3,152,159,150,195,239,234,237,246,241,197,208,212,257,244,272,274,274,257,300,295,293,468,477,464,576,634,549,579,633,643,658,748,847,1021,1070,1117,1111,1067,997,938,1004,985,995,940,1004,955,1016,1080,1069,1020,1009,945,1097,1121,1112,1103,1223,1029,1025,1091,1090,993,1040,1039,1003,944,920,849,826,870,939,937,983,1018,947,944,979,969,953,1017,1002,1080,1048,1037,1032,1011,879,871,872,804,814,841,867,875,881,860,892,927,938,925,1048,1031,1000,983,946,910,825,802,720,830,708,718,661,653,625,601,565,546,559,396,335,322,317,267,218,187,173,143,99,101,105,102,120,121,114,112,117,102,99,82,86,95,90,96,103,92,68,89,85,78,79,82,76,88,87,108
waveOut,3,4,88,87,126,125,124,123,141,112,116,175,267,282,296,356,381,413,400,407,374,348,337,349,332,337,347,384,435,499,613,753,853,993,1035,1052,1040,1046,1062,1206,1212,1273,1313,1216,1107,1109,1127,1004,1035,1078,1089,1006,1095,1132,1058,1011,1095,1115,1107,1115,1123,1042,961,991,950,939,886,862,780,812,833,932,989,1047,1066,1061,975,916,981,1021,1026,1134,1146,1069,1025,1010,855,865,796,766,858,855,893,910,914,781,804,681,665,579,544,469,439,309,272,248,231,211,163,157,157,176,138,144,134,130,94,81,59,75,76,76,84,91,82,87,87,81,93,115,126,125,121,111
waveOut,3,5,72,82,83,70,71,84,72,75,76,92,96,146,155,154,145,137,94,75,74,120,130,133,153,170,147,163,170,202,205,216,298,457,516,578,618,611,562,641,697,763,789,795,730,652,720,792,939,966,1015,975,975,895,981,974,943,1059,1108,1189,1215,1240,1181,1126,1028,1011,1098,1048,1076,1088,1146,1077,1064,1081,1042,1074,1019,1115,1070,1046,899,955,936,945,1023,1056,1066,1062,1068,1061,1147,1138,1042,1039,945,926,949,958,948,1008,893,805,878,945,950,1052,1099,1080,988,953,871,868,811,805,761,703,596,548,483,396,366,334,286,265,266,244,247,217,199,209,204,173,183,204,187,183,191,193,173,135,133,111,191,189,192,200,215,150,153
waveOut,3,6,973,993,947,948,888,907,899,983,920,958,1015,1044,975,1005,978,965,979,1043,1050,1087,1068,981,972,969,923,948,1075,1079,1121,1160,1164,1100,1107,1109,1055,1110,1091,1111,1104,1149,1099,1111,1045,1055,1008,977,1004,1052,979,1005,987,926,952,1005,1035,1053,1082,1022,1003,1016,1032,1004,1028,1000,963,928,984,938,946,964,963,844,871,869,810,791,824,773,771,739,694,652,628,551,506,481,446,354,333,274,265,232,179,130,149,145,134,135,129,92,86,87,83,82,85,82,85,82,101,92,92,96,96,71,84,86,94,96,93
waveOut,3,7,34,31,34,34,41,44,50,74,97,104,112,189,227,229,230,235,190,153,157,156,160,182,200,228,286,353,394,400,409,467,522,525,549,589,600,642,696,733,754,777,771,748,781,755,898,929,986,989,1059,1026,1132,1175,1203,1192,1139,1081,1084,1053,1081,1083,1060,1019,1020,1070,1151,1118,1095,1145,1067,1022,1034,1093,1089,1128,1092,1091,1083,1098,1106,1066,1063,1047,989,1056,1091,1081,1026,993,842,849,877,884,917,962,998,991,1120,1179,1153,1126,1121,1062,1035,1085,1036,1049,982,1051,1090,1135,1073,1081,972,910,864,904,928,927,937,999,999,1027,1082,1069,1135,1159,1083,1022,1010,915,922,1042,1046,1045,1090,1103,1009,1046,1052,1083,1044,1123,1084,1124,1045,1029,1012,1014,885,848,861,744,751,784,794,767,789,790,763,715,641,639,566,588,550,543,467,438,347,337,327,310,220,205,180,175,163,156,156,143,112,117,131,122,120,114,97,83,82,81,86,80,77,76,77
waveOut,3,8,124,126,135,125,129,130,136,134,112,138,140,142,165,168,153,161,168,158,171,162,157,178,184,172,172,190,194,211,221,235,274,273,259,259,368,476,595,634,688,833,823,776,843,949,854,871,927,939,809,864,799,830,849,913,878,918,900,915,884,974,998,983,931,988,964,976,958,993,1026,954,1013,1078,1101,1123,1190,1160,1125,1066,1041,965,969,943,929,925,1012,1049,1089,1171,1112,1035,1029,975,898,954,949,857,906,915,887,940,1022,999,977,934,946,864,852,904,893,850,823,859,785,806,732,792,687,769,783,786,750,808,704,687,681,769,734,751,736,776,632,587,530,556,529,527,551,562,457,357,300,249,189,141,127,99,68,70,75,77,139,142,144,142,142,86,78,90,87,79
waveOut,3,9,45,45,57,51,52,54,58,43,45,41,44,43,42,43,45,52,49,61,79,81,85,103,146,150,201,221,274,315,374,367,372,380,345,291,279,325,354,422,437,511,527,554,595,625,629,772,790,833,942,986,939,976,1013,965,1003,1015,1053,1006,996,937,920,930,1018,1073,1224,1270,1262,1244,1187,1089,1033,1044,1008,1046,994,1026,962,1000,992,1005,952,1037,956,950,940,966,843,928,934,1102,1143,1188,1162,1197,1067,1066,1062,1083,1047,1088,1071,1046,964,954,953,969,983,1005,1000,949,917,844,870,895,841,882,964,921,856,812,680,550,467,375,384,305,246,231,252,212,214,211,209,168,150,145,141,127,125,140,116,126,132,133,121,138,130,133
waveIn,3,0,96,130,139,146,146,156,248,411,424,431,446,413,279,286,281,264,239,241,205,202,203,213,173,179,180,181,168,169,172,199,261,293,351,432,447,422,407,401,494,502,529,581,604,529,584,639,740,800,832,827,876,798,755,719,765,750,751,796,786,756,694,732,684,738,754,761,749,717,724,733,786,844,873,836,804,753,630,605,568,531,616,740,718,725,741,665,544,563,613,605,602,605,644,662,643,661,632,577,499,504,479,570,568,551,571,590,516,512,541,514,435,397,392,366,313,281,276,247,195,189,186,175,153,143,131,122
waveIn,3,1,104,103,125,120,119,119,119,103,86,101,106,107,121,128,127,143,154,141,142,136,116,116,115,109,111,138,128,135,136,149,141,158,167,175,183,191,266,282,355,414,474,440,459,426,370,303,321,315,362,362,394,441,475,529,595,607,607,576,519,466,453,480,517,498,491,491,454,419,475,558,608,596,599,594,614,597,635,654,707,632,652,606,676,612,701,666,750,720,849,807,863,812,863,851,861,803,855,786,660,618,591,474,446,404,436,462,468,476,479,416,439,431,380,419,417,386,381,365,305,326,266,249,285,267,230,268,324,303,327,335,329,311,317,322,314,307,290,278,315,313,292,273,263,169,153,183,175,174,195,197,164,163,241,243,263,268,271
waveIn,3,2,110,122,127,122,128,122,106,98,103,104,106,103,99,97,84,95,109,114,122,124,117,109,112,106,114,174,323,334,335,421,423,461,471,491,429,412,255,231,209,196,213,259,302,320,350,429,528,519,516,535,508,474,603,647,630,604,533,416,375,441,427,445,509,498,470,541,554,595,721,784,765,816,809,723,735,760,751,722,721,639,612,592,582,623,697,700,717,673,619,538,546,527,641,634,680,728,764,692,777,811,764,696,726,675,625,609,643,618,651,682,754,737,785,742,719,641,879,849,883,877,904,714,712,706,682,653,658,618,574,520,484,349,294,169,153,146,132,146,145,142,148,150,140,144,205,200,203,226,301,284,306,397,437,409,410,413,324,303,285,277,272,280,219,226,212,209,219,227,205,201,176,155,141,178,175,217,220,222,207,209,179,170,172,152,149,116,125
waveIn,3,3,80,75,87,94,92,93,92,82,72,63,70,89,106,111,113,111,113,99,98,101,101,92,112,111,114,125,125,110,115,112,103,112,129,133,142,145,139,135,133,129,136,227,317,334,371,403,428,373,385,366,373,356,369,406,416,399,386,383,347,432,425,439,437,453,369,400,408,442,443,534,591,585,561,547,492,431,389,401,388,332,284,280,277,387,403,401,404,467,405,408,443,448,421,421,417,374,367,298,256,239,309,348,364,379,390,359,365,348,347,351,320,264,252,225,194,199,187,190,182,163,174,229,232,276,313,314,334,388,451,508,553,534,522,447,369,307,285,239,254,217,175,180,166,117,134,147,163,200,237,272,295,353,374,372,369,375,321,286,271,243,221,210,197,193,180,160,146,163,155,185,174,174,144,135,103,103,99,115
waveIn,3,4
waveIn,3,5,78,92,92,93,91,70,58,58,54,53,57,56,73,73,76,75,74,64,70,79,81,85,99,98,88,87,80,56,61,64,63,87,100,105,109,142,135,134,151,194,180,184,198,257,364,397,448,489,497,431,525,521,545,561,598,523,544,480,519,539,555,530,622,638,629,626,624,562,547,617,613,617,603,629,534,561,711,752,693,674,680,550,487,479,501,448,413,434,450,472,501,471,534,528,476,432,432,316,258,252,231,221,211,191,195,192,195,231,276,271,296,298,281,255,257,240,274,377,426,484,580,568,506,454,422,268,288,274,268,236,226,209,196,221,187,191,161,165,145,153,150,135,130,115,111
waveIn,3,6,75,72,80,81,78,103,108,106,114,128,117,113,122,127,129,131,135,122,129,115,118,127,142,127,139,139,168,188,217,352,375,405,473,490,468,528,607,624,651,715,742,704,729,733,660,640,683,613,585,564,512,497,494,514,556,631,587,591,608,639,595,551,529,475,379,390,410,405,385,358,332,301,302,304,308,205,214,204,221,213,205,201,221,192,197,208,192,171,190,198,205,216,220,281,374,374,396,404,434,377,383,361,357,250,204,173,173,145,135,157,151,134,137,149,127,120,124,112,130,127,157,173,184,164,163,148,116,95,98,103,92,94
waveIn,3,7,102,108,99,102,102,98,84,91,95,94,125,127,121,119,127,108,116,128,154,165,255,267,273,304,328,282,315,330,301,269,267,257,242,259,316,343,344,349,339,290,258,269,266,422,457,551,637,703,659,688,661,631,614,583,579,622,560,554,589,584,630,719,746,773,750,678,704,649,611,652,643,579,604,594,565,576,518,500,488,481,490,481,437,445,452,405,390,425,413,415,373,366,319,306,225,237,228,232,209,250,259,304,298,316,290,295,314,416,437,482,473,467,384,372,316,320,284,292,242,242,208,198,180,174,163,157,138,140,145,117,121,141
waveIn,3,8,66,70,77,86,88,95,99,110,110,118,120,146,148,152,164,179,154,163,165,166,163,205,209,241,273,293,350,376,371,347,331,293,380,511,573,619,667,633,623,664,634,584,570,509,469,507,487,489,568,521,492,512,514,390,418,410,426,403,397,371,405,412,445,458,435,496,559,589,587,739,711,751,767,799,672,711,589,544,496,494,364,424,518,568,582,609,574,467,374,417,442,448,444,448,357,271,219,178,167,167,160,163,160,147,124,111,100,100,98,100,100,108,105,116,119,123,144,148,155,182,216,212,271,304,328,308,314,279,277,239,291,311,312,286,300,246,201,180,180,152,160,165,157,129,130,121,116,123,132
waveIn,3,9,81,84,83,90,88,69,78,70,63,78,79,69,66,67,52,51,58,72,76,78,95,126,130,129,132,124,95,100,123,127,161,162,151,135,140,125,150,201,208,207,270,383,376,452,483,502,452,473,468,501,459,466,474,477,444,506,473,485,447,438,379,406,349,319,327,349,348,373,471,603,645,711,755,802,724,721,788,744,640,619,589,469,538,536,547,601,576,500,482,447,314,296,291,297,298,283,197,196,193,189,184,153,155,149,140,148,178,199,202,213,258,285,339,355,352,338,313,234,225,255,235,239,241,234,209,208,188,181,185,225,231,243,281,305,269
doubleTap,3,0,159,165,144,133,130,134,118,115,122,120,118,129,136,128,136,177,168,200,238,248,247,296,295,295,362,357,332,397,401,355,418,459,532,536,526,516,487,403,425,518,573,595,567,555,481,391,346,345,310,302,268,255,264,265,311,298,298,296,295,228,231,256,210,202,221,218,193,188,220,200,200,188,198,158,175,169,173,154,155,128,145,139,147,156,151,164,164,166,160,164,135,138,120,145,186,184,183,189,171,151,154
doubleTap,3,1,134,159,165,165,147,153,133,118,137,135,153,154,171,151,149,133,138,125,131,145,158,158,154,182,208,224,310,326,356,379,434,422,428,406,401,350,335,463,527,575,603,602,504,452,361,295,258,283,303,308,304,302,257,178,160,172,159,165,233,239,230,233,262,208,198,230,240,226,231,229,187,192,171,155,164,158,135,175,169,168,182,176,131,162,157,147,154,156,124,131,124,111,125,142,144,157,161
doubleTap,3,2,162,131,127,122,121,136,138,145,154,153,133,143,132,120,126,128,115,107,104,102,94,112,123,135,194,206,224,275,300,274,277,265,235,214,209,282,344,369,449,492,465,436,420,353,320,445,446,451,474,464,325,327,309,248,277,274,239,243,226,227,238,236,226,222,145,145,168,158,156,163,154,165,164,165,175,173,169,158,247,257,260,264,267,193,179,170,145,142,143,158,164,153,156,171,152,156,154,150,124,116,156,157,166,171,186,148,180,183,177,180,180,153,149,180,278,408,460,499,507,483,416,368,438,471,490,496,520,451,401,347,324,272,219,208,288,259,255,260,278,201,202,209,231,213,208,210,200,195,189,182,176,187,149,153,157,156,145,146,146,142,137,158,164,153,142,166,148,142,219,219,200,219,229,164,178
doubleTap,3,3,194,203,216,204,196,187,194,181,189,177,169,158,150,158,165,173,180,186,196,184,222,209,232,229,234,200,235,205,215,253,258,241,255,244,220,221,244,244,257,284,402,430,478,498,546,479,474,422,425,381,416,491,515,482,478,460,374,341,348,296,238,197,195,176,184,195,158,158,199,202,193,204,203,157,157,162,143,129,141,122,112,121,121,119,139,178,173,176,192,195,159,163,170,154,127
doubleTap,3,4,143,145,135,133,142,143,153,200,212,214,226,236,242,293,311,376,519,564,560,590,552,444,402,396,372,479,557,553,597,601,523,434,429,334,292,286,260,260,264,263,241,294,262,258,258,270,221,204,222,221,218,208,277,280,269,262,257,185,169,171,170,181,180,213,230
doubleTap,3,5,151,174,179,184,172,171,196,210,213,211,239,307,305,321,337,366,402,507,567,566,551,502,474,466,491,623,688,658,636,653,515,423,402,393,346,391,357,350,347,313,278,281,284,238,233,269,263,245,249,253,174,170,157,162,154,148,168,166,139,126,190,187,193,208,220,167,153,176,159,172,185,189,165,191,185
doubleTap,3,6,151,155,135,147,144,111,129,143,152,170,169,163,162,149,153,178,200,195,211,246,259,282,359,458,581,620,651,649,647,561,547,515,528,641,646,699,688,670,515,464,332,335,288,247,267,248,307,308,322,302,302,219,204,182,178,202,214,212,178,220,226,211,208,220,184,155,187,193,191,213,210,192,191,205,193,269,263,294,303,316,315,347,338,357,346,299,296,346,440,453,458,441,397,259,264,274,312,316,338,322,321,290,296,264,264,260,256,232,242,259,239,230,244,281,291,292,299,304,289,274,284,281,266,245,222,209,193,193,219,217,209,213,232,181,193,263,284,271,295,438,431,446,467,451,316,295,262,253,276,288,287,292,320,314,292,306,336,318,311,333,370,333,315,333,326,249,263,251,248,256,265,253,282,258,261,252,241,217,228,208,235,290,297,309,321,300,396,383,379,374,374,230,227,225,217,240,226,243,280,258,278,297,306,302,348,346,338,422,423,413,419,429,366,400,548,558,570,545,521,343,352,341,351,346,418,408,446,478,515,477,455,444,457,402,379,391,338,252,234,275,258
doubleTap,3,7,182,179,176,143,217,221,258,278,282,240,278,274,266,278,296,261,248,237,214,203,211,259,322,327,334,363,374,458,532,533,553,540,438,367,373,401,404,434,437,427,346,335,297,257,240,289,253,251,277,267,208,200,187,144,173,149,232,233,240,223,233,164,177,172,188,198,184,173,181,178,257,262,256,252,244,140,139,143,142,149
doubleTap,3,8,152,161,149,159,145,145,187,191,191,211,209,187,201,198,192,199,211,219,229,287,307,311,321,375,364,424,463,490,465,453,422,358,304,338,415,450,480,483,474,391,308,284,269,207,239,227,199,233,235,192,178,192,154,132,154,179,159,176,181,175,190,202,189,194,186,155,164,198,271,287,287,293,324,338,344,363,364,407,408,430,468,620,614,625,669,662
doubleTap,3,9,173,203,202,203,224,222,215,214,237,233,232,228,231,211,208,199,188,223,215,256,297,312,297,353,343,345,376,389,339,372,370,422,486,515,488,477,422,332,291,276,270,248,297,325,335,366,373,347,315,306,257,293,269,272,341,340,281,295,293,185,169,163,182,167,167,175,215,180,183,274,275,250,244,259,188,179,175,182,157,156,169,169,163,163,147,137,155,173
fist,4,0,27,28,28,28,24,23,24,24,24,22,23,25,26,26,29,29,31,31,32,30,32,28,28,31,31,30,31,31,27,27,27,26,25,25,24,25,23,25,69,94,167,176,180,178,173,143,177,177,181,204,198,231,252,275,279,320,351,381,390,484,463,454,626,671,717,800,823,753,795,837,882,971,1126,1202,1245,1247,1327,1323,1448,1405,1409,1382,1261,1145,1214,1211,1256,1353,1282,1181,1207,1054,884,812,804,636,565,566,527,473,453,396,359,336,247,202,194,199,152,121,115,115,120,116,138,134,136,122,113,85,79,93,92,88,90,85,76,78,129,133,136,131,131,84,75
fist,4,1,208,222,222,305,359,357,358,356,314,293,273,288,439,533,524,528,549,463,360,403,502,503,514,578,737,710,702,860,882,827,903,918,824,765,709,749,873,1006,1239,1368,1410,1488,1486,1352,1372,1339,1359,1381,1482,1552,1562,1517,1547,1465,1332,1285,1288,1192,1179,1147,1116,954,828,720,588,531,494,463,457,385,316,239,257,232,238,237,256,208,214,212,279,278,285,283,278,246,232,219,199,213,186
fist,4,2,27,29,30,29,28,30,26,26,25,25,24,28,26,27,29,30,26,28,27,25,25,29,29,29,31,32,29,28,29,26,23,26,28,26,28,30,28,24,23,20,21,23,24,25,28,26,27,26,26,23,26,24,25,25,26,23,24,24,24,25,26,27,27,26,24,24,23,25,25,26,25,25,22,24,24,30,32,37,64,81,126,177,211,246,324,438,671,760,870,898,963,907,1013,967,1038,1005,1058,1051,1192,1236,1406,1407,1421,1409,1361,1234,1179,1330,1340,1398,1407,1428,1306,1284,1319,1366,1452,1419,1434,1354,1353,1337,1230,1069,976,752,435,428,435,405,458,455,500,473,459,368,330,166,120,89,82,67,50,40,35,32,32,29,28,25,26,26,24,23,23,19,20,19,22
fist,4,3,22,22,24,21,24,23,26,25,25,23,22,21,21,20,21,20,19,19,20,19,20,21,22,24,26,25,25,26,24,24,46,108,116,192,213,298,367,570,650,685,702,764,751,751,969,1011,1244,1269,1272,1156,1233,1002,968,1066,1143,1094,1073,1110,1142,1185,1186,1315,1304,1383,1305,1325,1257,1298,1248,1352,1462,1502,1515,1427,1405,1301,1285,1257,1314,1283,1238,1361,1447,1487,1466,1508,1379,1239,1277,1244,1169,1076,1013,691,555,475,429,444,420,404,344,308,219,173,149,112,96,100,98,93,87,82,92,87,77,76,67,32,28,28,25,24,26,24,22
fist,4,4,25,26,24,26,25,25,25,25,23,31,50,52,61,82,85,91,96,123,119,119,115,132,195,210,217,237,239,242,278,287,282,323,358,371,371,119,115,437,494,603,664,690,693,819,732,660,645,696,641,738,781,824,798,816,847,953,938,1049,1031,1101,1265,1374,1384,1437,1434,1322,1301,1321,1284,1363,1369,1379,1353,1324,1324,1319,1261,1289,1397,1290,1317,1295,1196,1059,981,746,723,650,580,529,529,429,395,373,350,317,346,330,320,282,291,225,207,166,172,120,110,108,104,70,65,63,63,45,46,47,44,41,40,38,36,38,38,39,36,40
fist,4,5,26,28,29,28,28,27,37,47,85,92,195,206,207,197,226,165,152,150,149,103,79,165,264,433,629,719,756,789,740,666,650,716,722,805,813,816,895,1061,1035,1034,1106,1050,1045,1061,1156,1139,1223,1174,1265,1345,1337,1338,1469,1489,1414,1520,1493,1325,1245,1298,1192,1199,1264,1290,1278,1321,1331,1363,1351,1337,1263,1302,1188,1158,1146,1121,920,844,771,506,397,391,403,329,371,383,354,326,303,221,193,176,142,151,158,143,127,142,124,115,113,108,87,75,68,62,63,51
fist,4,6,25,27,27,32,48,53,53,52,60,105,110,114,119,160,161,183,256,282,322,391,406,479,566,646,710,816,805,815,825,876,935,1136,1127,1093,1036,980,771,868,1012,1067,1144,1168,1271,1233,1260,1322,1481,1455,1535,1550,1462,1336,1315,1341,1337,1313,1374,1383,1229,1155,1242,1244,1082,1047,1005,806,485,491,490,430,450,454,429,346,332,275,209,188,142,123,70,50,46,38,32,30,31,31,30,29,28,22,22,26,27,28,30,31,28,29,29,27,32,32
fist,4,7,21,21,20,20,20,20,20,19,20,20,25,27,87,91,92,93,94,49,67,113,125,178,188,226,225,239,339,401,392,522,623,635,683,786,903,1008,1031,1034,1048,990,1012,1004,1037,1046,1097,979,1027,1221,1389,1431,1541,1611,1525,1421,1333,1413,1390,1375,1338,1371,1236,1264,1316,1331,1335,1302,1192,1005,860,686,535,425,398,457,443,397,314,299,167,139,95,95,86,80,76,71,72,61,55,55,53,34,33,32,25,30,28,31
fist,4,8,25,24,24,26,24,23,21,26,24,25,23,25,22,22,22,22,24,23,23,23,23,20,21,23,23,24,39,41,41,65,113,137,148,161,216,290,385,544,607,686,674,687,698,805,810,851,882,859,791,880,917,877,946,904,882,939,1043,1067,1296,1396,1437,1500,1480,1493,1430,1410,1289,1315,1287,1238,1273,1333,1463,1310,1298,1192,1198,984,1063,1082,1035,881,771,568,377,321,347,341,318,279,264,215,169,134,111,102,66,57,74,73,76,80,78,62,61,49,44,43,52,52
fist,4,9,20,21,20,21,19,20,18,21,20,23,23,23,22,23,21,21,26,25,30,81,139,169,178,194,237,443,593,626,653,779,706,641,671,689,546,713,745,910,954,1023,920,949,896,972,1101,1159,1280,1310,1342,1248,1219,1178,1205,1124,1086,1264,1146,1049,1129,1217,1145,1323,1318,1253,1348,1315,1219,1221,1237,1104,1141,1032,959,853,717,427,402,440,399,361,331,287,136,100,81,60,48,45,30,25,28,28,27,28,29,24,26,24,23,23,22,18,19,19,17,20,21,20
fingersSpread,4,0,22,24,22,26,22,23,22,22,20,21,21,21,22,26,31,36,43,62,138,202,213,215,228,205,211,220,231,225,219,212,219,267,274,305,331,342,382,415,473,464,576,622,678,656,741,708,637,676,716,698,664,681,590,610,604,600,602,600,528,424,410,393,470,446,436,426,399,243,213,191,148,162,176,172,179,179,151,111,113,97,93,83,73,40,30,29,29,26,27,26,25,23,26,23
fingersSpread,4,1,70,100,120,137,145,151,143,149,177,174,199,220,219,324,384,401,427,430,425,408,502,632,650,695,720,759,750,847,901,913,899,858,788,749,783,763,802,883,995,1058,1126,1145,1116,1007,914,832,765,700,666,739,723,708,743,725,699,705,711,709,750,670,643,629,603,579,749,752,744,712,686,498,538,525,539,516,489,393,351,312,250,216,158,137,147,138,170,170,168,139,135,74,50,43,34,31,27,27,23,26,27,26,26,26
fingersSpread,4,2,20,20,22,21,21,22,23,21,20,21,21,21,22,22,22,22,20,21,21,23,24,25,23,24,24,21,23,22,24,22,54,59,123,134,154,170,195,190,199,208,226,217,215,212,279,275,290,292,345,315,381,432,547,596,636,784,789,745,798,890,823,894,977,943,921,929,874,883,888,804,790,773,788,786,848,890,955,891,935,911,856,837,832,876,857,816,799,811,679,690,768,751,683,716,741,684,645,632,537,435,333,266,204,183,127,122,122,117,113,103,65,54,43,39,35,24,22,23,21,27,26,26,25,28,25,28,29
fingersSpread,4,3,26,28,26,23,25,25,24,24,24,24,23,23,23,26,27,27,28,28,24,23,25,31,30,29,30,35,29,32,37,38,37,44,44,45,58,67,83,100,115,171,203,223,240,301,288,303,313,323,293,332,517,558,585,597,655,625,663,790,809,902,961,951,878,921,873,813,872,880,866,801,804,711,775,752,757,708,744,717,691,706,727,666,547,527,433,290,260,222,159,128,93,78,63,53,45,42,45,47,44,46,44,37,33,30,28,50,53,53,54,54,34,28,26,24,23,20,21,20,22,21,23,26
fingersSpread,4,4,19,20,19,18,18,19,17,16,16,18,17,19,19,19,17,17,20,21,23,24,26,22,24,25,27,43,50,53,63,132,147,155,218,370,437,465,497,533,493,455,545,530,574,587,603,621,655,720,770,878,903,983,1016,1060,1038,1056,1055,982,990,1064,1003,1032,1059,1132,1080,1233,1268,1320,1255,1331,1231,1155,1113,1120,1166,1116,1084,1031,989,821,992,1031,1039,981,893,744,638,551,519,474,289,229,212,185,204,191,164,149,119,59,40,30,28,22,23,23,21,22,23,21
fingersSpread,4,5,21,23,21,22,25,25,24,26,26,22,21,21,20,22,22,25,24,25,22,24,20,20,21,21,19,21,22,21,21,22,20,18,19,22,26,30,34,40,44,55,55,85,128,135,144,160,184,177,182,194,239,246,251,264,279,320,324,365,411,505,501,602,602,636,619,695,738,848,868,834,778,824,792,730,782,759,619,533,596,572,640,632,599,554,500,393,317,290,255,227,214,195,181,82,64,56,64,70,89,98,116,113,109,93,79,49,42,36,31,42,56,55,70,78,73,65,64,49,37,38
fingersSpread,4,6,21,21,22,21,22,22,21,21,21,22,22,20,19,19,20,20,20,20,25,22,26,28,30,28,30,29,34,68,99,139,145,151,168,261,257,265,294,283,198,191,209,221,301,351,384,392,406,493,552,652,743,846,853,946,1023,1057,1066,1036,996,959,936,849,933,896,877,906,929,894,854,781,673,665,564,571,535,518,540,555,517,496,456,313,220,195,150,101,80,151,156,155,158,159,86,71,68,58,48,37,37,35,30,27,24,24,25,23,23,22,22,21,24,23,25,24,25,24,23,23,24,22,21,22,23,23,25,24,23,21,21,20,19,19,19,18,19
fingersSpread,4,7,25,25,27,27,23,22,21,20,20,21,20,24,23,25,24,26,23,23,21,24,22,22,22,22,18,20,28,48,57,74,107,121,134,148,175,335,372,405,406,449,384,546,560,589,583,591,485,553,564,620,748,779,821,924,991,970,989,1063,1054,1046,1047,1005,967,902,844,823,825,719,726,686,721,739,697,624,596,421,297,252,256,207,177,170,134,103,100,91,89,133,137,135,132,124,74,78,71,81,81,75,53,52,31,28,26,28,30,31
fingersSpread,4,8,24,23,25,24,21,22,23,22,20,20,22,20,22,21,21,20,19,21,22,24,23,23,22,21,21,20,20,21,24,24,26,27,25,22,22,18,18,18,18,19,23,26,27,27,31,33,34,47,48,50,47,50,43,43,47,54,62,67,80,102,151,184,202,235,302,347,392,400,448,478,602,792,863,925,976,999,962,1010,960,928,836,769,726,799,775,763,700,642,526,500,467,473,393,413,444,448,401,382,297,153,108,99,104,91,84,75,75,49,36,34,31,27,26,26,24,23,23,23,23,22,21,21,20,20,21,22,22,24,23,24,23,26,25,26,24,23,20,18
fingersSpread,4,9,22,22,25,25,25,23,26,22,25,24,23,22,22,20,21,23,21,23,24,22,25,25,25,24,25,20,25,25,25,24,26,27,33,41,50,63,67,90,118,171,206,211,255,289,301,331,389,455,571,609,712,833,867,928,959,904,820,869,875,914,950,955,928,806,762,735,692,591,625,555,515,499,559,521,492,446,453,521,612,620,639,635,487,301,266,199,138,128,106,82,85,83,84,76,80,65,61,56,52,35,29,25,25,23,19,20,20,21,21,21,20,18,17,18,18
waveOut,4,0,22,25,25,27,28,37,38,38,37,38,40,38,39,41,47,47,59,68,93,123,144,150,181,175,176,171,186,288,369,407,407,47,59,505,542,560,669,732,708,805,780,733,792,881,858,888,946,931,914,921,906,821,804,723,731,735,750,671,677,546,558,530,523,477,484,411,332,277,253,203,155,117,81,65,51,44,43,523,477,484,39,31,27,27,23,22,25,25,24,26,26,25,25,25,23,26,26,25
waveOut,4,1,26,25,25,24,24,23,26,28,29,31,29,31,30,35,34,37,36,47,49,59,59,64,66,66,65,81,129,174,227,251,404,425,553,575,643,642,785,863,915,986,980,923,866,924,980,1084,1096,1054,1052,944,915,930,997,981,1042,960,994,1003,1024,997,1043,1016,931,844,757,639,568,544,474,428,421,301,249,197,184,161,105,85,61,49,37,37,34,31,33,31,31,31,32,31,31,26,27,24,22
waveOut,4,2,23,26,27,27,27,28,26,27,26,27,23,24,21,27,27,29,31,32,27,28,27,24,23,24,26,24,25,25,29,33,34,47,53,64,139,158,163,179,236,227,247,283,355,346,395,398,405,428,459,524,566,581,650,704,692,770,878,948,953,975,935,891,762,738,781,832,837,853,855,797,732,657,638,595,533,503,514,541,526,530,487,428,295,292,234,224,217,205,132,89,74,62,56,48,44,34,30,26,27,25,25,24,24,22,23,19,22,23,23,24,23,25,25,27,26,28,31,31,30,29,28,24
waveOut,4,3,17,20,19,20,21,24,22,22,22,20,18,20,21,20,20,21,19,20,22,21,20,21,21,21,22,23,22,22,22,20,19,19,19,18,18,19,28,33,41,54,182,191,197,222,231,187,197,238,228,237,366,433,530,607,647,634,678,676,848,903,940,1032,1033,926,964,999,906,927,1034,1017,1153,1219,1291,1301,1315,1173,1225,1154,1114,1101,1107,941,933,830,729,629,590,459,324,263,216,172,136,119,89,79,70,59,44,36,33,32,32,34,37,33,36,36,31,29,28,25,24,25,24,23,23,23,23,24,25,25,25
waveOut,4,4,21,21,21,21,19,21,22,23,22,23,23,21,21,20,20,21,21,20,21,22,21,22,23,24,23,39,146,160,161,168,206,203,250,286,318,357,371,403,467,595,631,697,705,712,664,619,707,737,779,883,904,871,905,927,889,914,952,955,917,904,954,853,848,867,775,647,641,527,440,441,431,366,333,216,166,129,113,84,61,46,41,36,33,34,31,28,28,26,21,25,27,31,31,34,34,33,32,33,30,30,28,24,24,25,24,25
waveOut,4,5,24,23,24,20,22,21,23,20,20,21,21,20,22,23,22,24,25,23,34,192,263,274,284,298,244,189,268,307,306,340,446,435,541,607,702,674,758,842,860,847,1003,987,975,1125,1171,1090,1163,1123,1138,1064,1127,1063,1128,977,1090,1003,1035,976,965,879,912,860,773,724,714,647,557,545,502,350,233,214,162,149,140,78,58,48,38,31,27,28,29,27,26,27,29,28,26,29,25,26,27,29,28,28,25,27,27,28,30,30,25,25,24,22,22
waveOut,4,6,25,24,24,20,24,23,23,24,24,20,21,22,22,22,24,23,23,22,21,20,20,19,21,21,22,22,20,24,23,22,23,23,20,21,21,24,24,26,45,76,85,110,111,110,94,93,120,169,173,189,286,328,409,526,640,667,688,725,755,735,706,679,613,570,524,551,594,597,580,757,768,884,879,943,863,845,710,714,669,627,654,646,685,741,816,803,841,843,792,673,677,697,672,588,618,597,484,452,435,359,295,276,213,177,123,103,75,58,46,38,31,27,28,26,25,21,23,24,28,30,33,33,34,33,38,35,36,34,34,28,27,26,27,26,27,27,28,27,28,24,23,23,24,22,23,23,22,20,19,22,24,24
waveOut,4,7,24,25,23,22,21,22,21,23,24,23,25,25,21,20,22,20,20,21,22,23,23,23,24,24,22,23,23,22,22,24,39,57,119,128,131,153,158,154,151,157,169,183,171,182,179,195,203,236,314,373,415,415,405,386,350,362,351,342,373,411,446,537,596,600,661,774,812,841,911,965,905,856,866,778,636,567,517,593,606,598,654,704,564,521,513,390,288,205,191,177,123,81,54,49,46,36,32,27,26,26,24,23,23,23,22,23,22,22,23,25,24,22,25,24,23,23,24,22,23,21,27,27,26,26,27,22,22
waveOut,4,8,21,20,21,20,19,19,21,21,22,23,23,22,23,22,23,23,23,23,24,22,23,24,22,21,21,19,19,20,21,25,26,39,162,203,216,224,240,285,280,285,313,351,476,565,615,688,719,690,710,748,875,962,1035,1146,1186,1200,1307,1337,1352,1309,1266,1156,1100,1009,1039,1008,945,971,940,882,818,801,686,633,600,540,509,450,343,337,399,381,344,348,341,280,208,193,164,153,107,79,97,98,85,77,77,49,46,43,41,31,29,24,22,26,26,26,25,27,24,22
waveOut,4,9,19,18,19,18,20,22,22,21,23,25,22,23,22,19,19,19,20,21,23,22,24,23,24,23,21,19,20,19,20,22,24,23,25,24,23,23,27,29,88,112,129,152,154,135,126,169,194,316,442,526,611,722,804,794,864,839,844,880,946,986,1100,1123,1173,1194,1134,1084,1057,1037,1012,1045,1026,1016,971,935,904,880,896,769,814,754,738,658,653,482,460,359,259,242,226,148,103,90,64,52,38,32,32,29,29,28,29,29,29,24,23,21,21,20,24,23,26,26,29,26,27,25,24,21,22,21,20,21,24,24,25,26
waveIn,4,0,21,21,21,21,21,19,20,20,20,20,18,17,19,22,23,23,25,23,22,22,23,23,26,26,29,37,38,37,45,50,47,49,52,49,52,60,63,75,81,84,91,98,116,127,137,148,155,170,170,52,60,250,278,275,311,323,276,318,334,327,337,331,270,263,236,182,172,151,112,80,69,60,56,48,44,28,36,40,41,42,42,34,34,39,77,111,117,120,121,104,68,57,47,40,31,28,28,27,26,27,25,25,23,23,20,19,21,19,19,20
waveIn,4,1,25,23,29,30,32,35,37,34,36,38,39,38,38,44,44,43,44,48,52,53,54,54,67,69,69,77,78,69,66,67,68,74,101,157,244,351,393,400,407,447,446,428,425,425,365,335,348,372,367,390,351,333,343,395,364,349,352,309,244,237,234,208,206,157,117,104,90,76,173,180,197,202,201,123,108,74,61,59,52,50,47,43,39,40,36,33,29,28,24,27,27,25,26,25,22,20,20,21,21,20,23,23,21,21,20,19
waveIn,4,2,17,22,25,26,26,27,25,21,19,21,21,18,20,20,20,19,24,22,22,24,24,19,21,22,19,21,21,19,19,19,18,17,18,18,19,17,19,22,27,27,28,29,27,20,20,19,19,20,21,22,22,23,21,23,23,27,27,31,32,35,35,38,47,63,64,65,69,71,92,95,98,112,113,92,98,131,143,156,174,202,201,197,193,232,304,328,327,358,336,276,239,250,218,203,184,175,149,115,105,68,65,56,60,60,55,53,49,35,34,32,33,34,26,25,30,30,28,28,28,24,22,23,22,23,22,23,22,22,24,24,25,24,24,23,22
waveIn,4,3,25,23,24,24,23,23,23,22,21,21,20,20,21,22,21,22,23,22,20,20,21,21,21,22,23,21,23,21,21,20,24,22,31,35,42,42,50,48,60,65,67,78,79,80,81,83,74,81,80,86,84,91,110,119,145,195,218,213,214,206,184,189,199,207,213,215,197,214,209,199,189,188,158,147,136,119,107,90,80,76,64,42,40,39,38,41,42,39,38,39,38,35,36,35,30,27,26,23,23,26,31,32,32,31,30,26,24,26,26,26,27,27,25,24,24,25,26,25,28,27
waveIn,4,4,29,29,31,27,26,25,26,28,26,26,28,27,28,28,27,26,26,23,22,21,21,21,23,23,24,25,28,28,30,34,38,37,50,51,48,58,59,59,63,105,140,203,245,262,294,289,314,326,336,323,364,339,328,318,368,355,395,409,432,406,404,354,316,276,234,184,161,157,144,116,103,87,60,115,136,146,148,152,115,89,86,96,102,107,121,114,102,88,78,49,40,31,31,32,29,27,24,23,22,23,24,24,24,24,23
waveIn,4,5,22,23,24,23,22,21,21,20,22,23,22,20,20,20,20,22,22,22,21,20,19,19,19,20,20,19,19,20,22,21,21,22,22,25,30,32,34,42,43,43,44,48,44,47,46,45,47,46,46,62,68,69,77,96,112,140,156,163,192,233,252,264,267,329,328,331,368,482,454,436,421,381,223,170,155,138,119,98,78,65,57,57,44,46,45,46,44,41,35,31,31,32,42,73,116,119,121,119,108,60,54,48,43,28,25,26,24,25,23,23,26,24,23,22,25,22,22
waveIn,4,6,27,25,25,26,24,21,21,24,23,21,23,23,20,20,20,21,21,22,23,23,22,21,24,24,24,24,25,21,20,20,19,20,19,19,19,19,18,20,21,24,24,25,24,26,28,29,40,41,43,65,77,88,88,89,78,73,73,109,121,151,154,152,178,181,168,177,224,220,238,262,267,244,237,244,257,273,274,276,265,249,236,221,208,203,179,154,152,133,110,81,74,65,59,66,66,65,67,71,53,51,52,44,35,36,33,34,38,39,37,38,39,32,31,30,28,24,24,24,21,22,22,23,22,21,21,22,22,24,24
waveIn,4,7,27,25,25,24,23,22,23,20,24,23,23,22,22,21,21,24,27,29,29,30,27,25,25,23,22,22,22,21,21,21,23,25,25,25,25,24,23,21,21,21,20,19,18,21,20,21,21,31,39,42,69,89,139,291,523,578,590,589,553,412,365,456,528,609,609,665,615,674,674,826,845,895,859,802,785,718,683,641,630,397,380,312,253,241,214,181,118,108,96,73,52,49,43,38,35,37,33,32,36,35,31,91,104,105,107,109,69,47,42,37,34,29,29,26,25,23,22,19,21,20,22,23,23,23,24,24
waveIn,4,8,21,21,20,23,23,21,22,23,22,22,22,23,23,21,22,22,20,19,21,23,23,25,24,25,23,22,20,20,20,20,24,25,24,23,24,20,20,21,20,22,21,22,22,23,20,21,19,22,21,23,22,23,21,21,21,22,23,22,22,22,21,19,20,22,22,25,31,32,44,59,66,69,77,161,159,180,186,193,152,175,193,228,269,287,336,340,330,313,352,311,306,303,325,281,293,304,319,287,274,273,270,252,251,232,194,144,111,86,82,76,68,56,41,39,37,49,54,84,108,110,105,104,80,40,37,38,33,31,31,25,24,25,24,23,27,24,27,28
waveIn,4,9,16,19,18,18,21,21,22,23,22,21,24,23,23,23,24,22,21,23,22,21,22,22,21,22,24,25,27,26,26,49,56,60,62,67,71,76,77,79,78,100,119,139,155,166,164,238,283,427,457,484,460,462,390,419,396,404,396,360,358,359,349,324,296,196,163,118,88,79,58,53,52,50,49,56,55,59,60,115,164,179,186,200,174,136,122,113,88,85,76,69,57,53,52,37,29,29,27,26,23,23,21,20,21,23,23,25,23
doubleTap,4,0,42,43,45,52,102,126,133,135,136,126,124,120,117,115,91,89,121,125,129,130,171,174,180,180,182,128,89,74,73,98,94,97,94,125,141,175,188,195,177,150,117,103,98,96,97,84,73,62,56,55,57,55,52,50,35,29,32,30,30,31,30,28,25,26,26,27,27,27,27,26,25,22,24,21,22,27,26,26,27,29,26,27,27,27,26,24,25,25,24,24,25,26,25,26,24,24,24,23,27,26
doubleTap,4,1,36,36,34,32,32,29,27,29,31,28,32,35,34,34,34,87,91,93,94,106,70,73,95,104,92,100,102,81,71,79,75,71,71,75,68,67,80,125,131,144,150,153,133,131,119,107,89,65,46,37,35,33,29,32,28,25,25,25,22,21,22,23,23,19,21,24,22,24,27,29,26,31,31,30,29,30,25,25,24,23,21,22,19,19,20,20,21,23,24,23,24
doubleTap,4,2,20,20,22,21,23,23,24,23,24,26,25,25,25,26,23,22,23,22,21,24,31,34,39,43,51,48,56,56,59,125,144,157,181,189,199,234,253,241,238,202,148,102,96,93,92,102,179,185,200,205,202,138,131,107,99,89,74,60,48,32,27,23,22,21,21,22,21,22,23,22,22,23,21,23,22,22,21,24,22,21,24,24,22,22,25,23,25,25,26,24,24,24,26,24,23,24,21,18,20,24,23,24,24,23,23,23,22,23,23,23
doubleTap,4,3,18,17,17,19,20,19,20,20,20,21,22,22,22,21,20,19,20,21,21,21,22,23,23,23,24,26,25,30,46,58,58,64,63,66,115,145,151,154,152,119,81,67,66,62,59,64,63,62,108,124,123,124,122,85,50,47,41,36,31,33,26,24,23,22,18,21,23,24,24,23,23,23,23,26,27,25,23,23,20,19,21,22,21,25,24,28,30,31,29,29,25,23,23,23,23,21,22,22,21,21,22,19,21,22,23,24
doubleTap,4,4,20,20,20,19,20,19,18,18,19,18,18,18,23,25,25,26,27,23,20,20,24,30,31,37,42,50,51,52,59,105,109,122,123,124,90,83,61,79,74,74,72,73,64,76,73,74,71,58,39,36,32,32,29,22,21,23,21,21,24,23,24,22,23,22,25,23,25,26,24,23,21,21,24,23,24,24,25,26,25,24,23,20,18,18,20,19,21,23,23,25,24,26,24,23,20,22,20,21,22,21,22,23,22,21,22,22,22,22,24,23,24
doubleTap,4,5,18,20,20,21,21,23,21,22,21,21,20,22,24,25,24,26,25,22,23,30,35,37,47,46,46,43,46,51,68,128,154,161,158,154,109,69,59,60,60,66,67,76,75,75,68,66,45,41,36,35,32,33,28,29,28,26,21,22,20,20,20,21,20,21,21,22,20,20,23,21,21,22,25,23,26,26,28,28,27,26,24,22,21,20,19,22,22,23,23,24,23,23,25,24,23,23,23,21,21
doubleTap,4,6,22,20,19,24,21,23,24,23,21,23,22,20,24,22,23,23,23,21,19,17,15,17,17,17,19,20,21,21,21,20,19,21,21,25,29,32,33,34,36,33,34,46,49,48,52,59,67,72,74,78,73,57,48,48,53,56,58,60,56,42,43,40,36,36,36,25,27,25,23,20,22,19,22,22,23,24,23,21,22,22,20,23,23,22,23,22,22,20,21,19,23,20,20,20,20,15,16,18,19,19,21,23,22,23,23,21,20,20,19,19,18,17,18,19,20,21,21,22
doubleTap,4,7,18,17,18,18,20,21,21,21,21,21,21,22,23,23,21,20,20,18,19,22,21,21,21,23,21,21,21,22,21,22,23,22,24,27,31,36,40,40,53,71,72,71,74,76,58,57,62,62,48,47,50,53,52,51,57,51,39,36,35,23,22,22,21,23,23,23,25,26,25,26,25,24,23,23,22,21,20,21,19,22,27,26,25,25,23,20,20,23,24,24,22,24,21,22,22,22,20,20,20,19,20,22,22,22,22,24,23,23,22,23,22,21,22,22,24,22
doubleTap,4,8,18,19,18,21,20,21,22,22,20,22,20,21,23,24,21,23,24,23,25,27,32,132,145,146,149,156,120,109,109,113,105,70,62,61,47,44,49,50,49,49,63,73,77,94,104,96,87,84,68,48,45,38,34,26,25,24,23,23,22,22,23,23,21,20,21,20,24,25,26,26,31,30,30,31,34,29,29,30,28,24,23,21,19,20,22,21,23,23,23,22,24,24,24,23,23,21,19,22,22,22,23,23,22,25,26,26,26
doubleTap,4,9,22,22,22,21,20,21,21,21,20,20,20,25,25,29,30,34,33,37,38,44,43,43,41,37,33,50,50,55,58,61,47,51,53,55,56,58,58,55,54,67,72,69,66,65,48,46,46,45,46,42,32,31,28,22,22,19,19,19,21,22,23,22,22,22,22,21,23,26,29,28,30,30,28,23,24,21,22,21,20,20,22,21,21,20,24,22,22,24,25,23,22,20,20,18,21,22,25,25