
fist,1,0,24,24,26,26,27,26,25,22,19,20,22,21,23,24,26,25,25,25,25,22,20,20,19,20,19,21,21,22,21,22,22,23,22,24,23,23,23,23,20,22,19,21,21,21,22,97,323,491,741,850,921,925,970,895,855,818,795,690,625,596,592,585,583,529,477,472,422,391,373,387,328,408,491,553,551,550,523,447,442,421,414,367,358,297,308,305,319,355,350,377,393,461,435,453,432,433,436,423,418,489,486,442,434,413,330,324,307,350,342,334,378,393,399,437,487,463,433,411,420,349,315,302,259,155,164,162,159,148,126,100,113,105,97,94,92,71,83
fist,1,1,203,246,229,220,313,309,283,352,381,324,343,340,282,245,289,275,273,267,276,219,200,283,287,280,264,267,175,164,174,171,255,281,272,262,262,175,123,142,133,124,144,169,158,204,259,269,264,260,224,160,118,89,108,112,109,108,104,81,70,74,71,67,76,79,72,76,65,49,58,71,68,67,69,72,58,62,63,62,50,57,53,50,48,43,31,27,24,76,146,191,392,457,527,570,582,500,467,478,455,453,482,521,511,514,526,508,561,586,563,561,586,515,482,527,521,576,552,502,522,546,457,471,507,477,444,442,474,487,432,448,452,414,337,361,322,382,356,366,353,350,239,305,315,386,405,402,362,378,334,310,292,296,298,248,231,233,233,160,157,153,150,127,119,117,115
fist,1,2,59,59,58,32,30,38,43,44,44,44,35,27,32,34,49,52,51,50,50,36,35,36,37,36,36,33,32,25,26,26,27,27,27,29,63,80,88,110,178,397,471,549,608,689,665,657,639,663,572,605,564,655,616,651,592,633,594,595,646,601,572,570,542,482,504,513,430,422,362,331,419,402,458,484,551,479,523,527,527,473,456,467,455,551,548,562,516,540,502,514,524,551,550,470,454,443,395,303,290,265,291,269,242,240,283,224,223,238,243,214,203,206,187,174,145,133,101,237,264,277,282,295,286,272,262,283,272,177,163,154,122,179,188,191,194,186,137,128,123,125,121,110,104,102,102,99,81,76,78
fist,1,3,63,62,38,29,26,31,32,47,50,134,143,146,143,153,135,169,292,377,427,449,525,525,487,468,455,405,391,413,456,461,449,476,463,566,570,557,513,514,354,405,430,437,485,476,423,385,439,415,415,410,456,440,427,438,496,479,481,502,509,471,487,507,515,492,503,541,502,530,544,526,467,468,379,356,395,405,389,459,472,502,487,468,393,368,254,254,244,260,451,461,448,450,464,342,349,352,352,376,332,302,294,289,315,330,337,342,335,212,162,180,193,198,198,197,156,115,102,105,119,129,122,123,117,96,81,76,75,80,79,68,74,71
fist,1,4,57,52,47,44,38,38,26,27,25,25,24,28,27,26,26,27,29,35,50,88,164,196,220,240,290,325,336,388,399,366,358,385,378,381,411,427,394,363,376,350,300,380,400,374,391,499,450,426,470,501,408,399,461,478,481,470,479,462,402,338,381,433,409,404,475,465,410,415,414,410,432,429,460,507,498,485,477,425,377,369,341,371,370,358,294,290,250,268,285,264,291,291,258,232,234,168,184,169,175,176,202,211,276,328,354,349,332,282,210,152,90,94,89,89,93,104,101,103,94,86,84,80,84,90,89,97,89,87,100,117,106,104
fist,1,5,64,77,67,52,52,50,40,41,44,56,58,53,52,54,59,59,57,58,54,42,57,62,63,64,65,51,46,55,136,412,607,740,899,919,870,792,692,507,472,424,389,366,344,335,342,369,377,369,452,501,485,536,538,507,516,490,440,489,532,505,563,603,611,546,525,457,416,346,353,428,473,490,481,533,477,441,444,532,518,565,610,591,542,547,530,483,457,496,443,390,392,518,512,537,603,609,519,484,454,343,344,324,278,265,258,219,287,285,281,291,295,253,239,239,231,294,268,278,279,288,215,203,193,187,159,164,285,284,286,300,278,157,170,184,158,161,163,135,141,138,132,128,127,100,102,105,94,90,91,86,88,89,98,92,114,114,132,128,107
fist,1,6,54,53,53,46,40,30,27,28,29,27,30,69,122,166,204,211,211,206,215,268,292,326,352,350,330,330,364,346,423,402,401,417,502,450,505,544,502,481,496,459,468,498,453,480,524,513,506,590,575,537,535,508,406,476,499,474,519,564,529,552,539,539,556,530,509,561,563,605,592,574,610,603,523,575,558,567,529,536,501,543,430,459,457,429,380,383,338,267,267,233,258,291,276,235,234,227,265,293,294,312,325,283,275,287,283,276,263,269,261,257,222,230,188,186,186,169,153,157,145,128,107,98,92,119,110,117,132,132,110,107,107,91,88,81,85,83
fist,1,7,283,286,277,206,233,242,339,417,407,394,387,305,172,144,141,163,180,172,174,191,212,238,263,352,357,427,417,405,358,356,253,261,363,413,412,455,495,472,446,513,535,523,498,497,462,445,435,444,450,433,381,376,423,396,373,388,428,387,384,392,428,371,329,354,407,407,483,501,478,452,473,399,383,441,419,372,391,395,369,373,369,354,413,431,432,412,480,429,373,364,352,299,294,299,299,359,383,399,401,408,358,268,261,245,206,196,193,198,187,189,187,186,135,133,126,120,97,78,71,75,90,91,90,88,85,68,67,75,82,93,97,96,93,95,78,72,73,90,87,91,92,94,78,71,72,76,74,71,73,67,60,58,61,56,56,53,51,94
fist,1,8,22,24,25,62,89,153,231,289,312,354,375,382,381,367,343,313,311,306,315,334,339,313,284,337,414,435,449,508,505,462,468,489,448,451,439,434,418,485,454,448,519,590,581,598,586,514,535,476,542,570,591,512,516,444,466,468,439,448,498,487,475,534,571,572,555,523,456,399,297,285,327,329,295,280,248,213,193,199,206,213,188,176,168,157,130,126,113,107,110,101,113,112,118,131,126,117,112,117,106,114,111,112,102,105,89,84,84,85,110,114,114,112,117,79,68,71,79,73,69,70
fist,1,9,51,59,60,61,61,41,29,29,27,25,23,23,19,20,23,27,36,41,94,112,114,120,128,107,107,114,129,136,158,223,348,370,382,401,383,289,262,245,204,199,213,236,312,317,373,397,391,390,406,393,391,397,386,375,395,367,422,457,483,442,453,429,358,433,467,460,443,453,363,309,293,257,343,414,413,420,456,386,308,377,442,409,406,472,413,334,350,419,327,328,335,349,260,243,284,270,222,217,229,161,160,181,163,138,143,141,95,92,85,73,73,71,69,77,121,122,122,123,123,75,71,80,81,77,77,71,81,90,88,88,94,78,82,86,90,84,88,78,75,67,68,63,62,68,71,66,68,72,65,71,76,80,82
fingersSpread,1,0,33,34,36,26,26,25,22,21,25,21,24,25,25,21,22,20,18,22,26,46,72,76,77,85,81,65,68,76,81,83,86,86,103,103,119,120,124,113,132,127,136,139,168,196,228,251,265,266,249,221,199,194,194,214,216,215,205,189,180,202,197,216,206,175,140,130,83,79,72,60,51,31,31,27,25,25,28,27,29,27,29,27,28,26,24,22,25,25,24,23,23,21,23,23,25,24,25,23,24,23,23
fingersSpread,1,1,54,64,70,72,73,79,75,82,87,95,100,140,145,148,152,168,150,152,252,305,313,313,315,257,200,225,257,278,285,289,269,296,283,270,270,277,212,209,211,204,214,226,219,215,206,170,143,129,110,101,70,64,50,45,38,28,27,25,25,25,24,21,22,24,26,24,26,26,24,22,25,23,22,25,26,23,25,26,28,27,28,28,26,23,25,23,22,23,22,20,22,24,24,22,24,23,21,22,23,23,22,22,22,21,21,21,22,22,21,22,22,21,21,23,23,23,24,22,25,23,24,23,26,24,24,23,25,24,22,21,21,20,18,21,21,23,23,23,25,24,23,24,24,23,24,23,22,22,19,20,20,19,23
fingersSpread,1,2,23,22,24,24,24,23,21,20,20,20,18,19,19,23,31,34,36,45,48,64,67,67,63,63,58,55,55,58,57,49,50,49,54,68,67,78,81,82,77,85,83,81,84,83,90,122,136,158,161,161,139,128,100,109,109,118,148,168,162,185,183,164,159,158,129,128,147,140,145,144,165,153,151,145,146,132,128,127,136,134,119,107,93,79,67,59,56,51,35,31,29,27,30,30,28,28,29,27,31,31,30,30,29,22,23,23,22,22,23,23,24,24,24
fingersSpread,1,3,32,33,33,29,29,25,23,23,21,21,25,29,28,33,34,31,31,33,33,42,51,54,54,52,47,37,54,61,65,65,66,59,52,52,57,64,58,65,69,64,64,71,84,88,109,113,115,121,119,118,131,132,122,136,136,127,129,129,119,109,107,107,107,106,102,98,106,105,112,119,124,124,149,158,164,165,163,149,140,134,149,155,143,150,148,125,107,107,89,88,86,82,78,65,43,39,34,29,29,28,31,30,32,30,29,25,28,27,24,25,27,26,24,25,24,20,19,23,21,20,24,25,24,27,27
fingersSpread,1,4,17,19,20,20,21,22,21,25,26,27,28,28,23,24,39,41,63,66,80,76,76,61,59,39,39,39,52,54,57,64,75,79,84,95,95,91,97,100,92,107,109,100,108,130,118,143,157,173,193,205,192,185,192,164,158,164,170,148,147,149,140,152,153,171,172,177,171,189,216,212,217,220,217,188,190,180,172,180,163,159,154,160,117,115,105,101,65,70,61,55,52,50,34,30,27,29,28,28,27,25,23,26,27,30,31,30,28,26,23,22,28,28,28,31,33,27,27,29,28,27,28,28,24,27,25,23
fingersSpread,1,5,25,27,50,56,57,58,62,45,51,52,50,45,45,30,39,40,60,64,88,85,105,96,99,84,96,97,107,152,151,164,155,148,110,125,116,118,124,152,185,218,247,264,261,240,231,211,207,209,240,228,218,215,208,176,175,188,178,167,161,213,221,218,225,222,156,133,133,114,109,107,90,79,83,67,58,60,63,42,43,41,34,33,33,32,33,35,29,30,29,27,27,27,24,25,28,28,29,33,31,32,32,34,29,29,26,21,19,20,22,20,24,25,25
fingersSpread,1,6,18,17,19,20,18,21,23,23,22,25,24,24,25,26,25,25,25,34,38,38,46,51,48,51,58,62,59,57,53,48,42,46,48,52,57,80,80,84,88,90,69,69,80,80,78,87,87,83,83,95,92,91,86,90,83,84,91,93,100,99,99,120,132,149,151,153,138,143,119,116,114,119,114,112,134,133,126,134,135,117,135,147,148,144,147,133,126,107,120,116,126,118,126,132,133,125,126,111,89,74,60,47,43,40,36,31,28,24,23,23,22,24,24,24,23,22,23,23,23,25,25,25,24,24,21,23,22,21,22,26,27,26,28,27,26,24,25
fingersSpread,1,7,21,24,24,25,26,26,23,26,27,27,27,28,27,27,32,33,33,33,33,34,52,54,60,63,61,50,54,51,47,47,44,57,58,60,59,72,59,60,65,75,67,70,74,68,67,86,84,77,79,87,85,118,128,143,143,142,126,139,128,136,135,176,168,173,163,167,124,151,159,171,169,173,141,121,125,131,134,136,141,134,136,122,131,126,118,101,103,114,129,124,118,111,81,54,49,47,46,44,37,32,31,30,30,31,30,28,27,28,26,49,47,46,25,26,26,24,26,30,30,30,29,29,25,24,25,25,24,25,23,22,22,19,19,20,21,22,23,45,49,50,50,51,33
fingersSpread,1,8,22,21,21,21,22,22,23,21,22,22,19,20,22,21,20,22,22,21,21,45,49,53,56,58,44,46,42,43,44,44,51,50,52,50,52,50,54,51,54,62,59,56,55,56,46,43,54,58,56,61,69,63,60,61,62,60,61,75,84,98,98,101,95,88,75,80,104,106,113,113,112,98,115,130,139,139,144,133,120,115,124,135,137,137,134,125,108,111,110,112,112,105,100,105,101,107,105,101,91,94,84,95,94,95,104,103,95,106,105,96,95,94,78,71,56,50,36,31,25,26,28,31,31,33,30,28,24,24,23,21,22,22,21,22,23,22,22,24,21,23,23,23,21,20,20,19,23,24,24,23
fingersSpread,1,9,23,21,19,21,22,38,38,39,43,44,32,38,37,31,31,31,30,34,41,43,46,51,52,49,55,53,47,48,52,49,63,67,68,67,72,64,69,71,71,75,74,78,83,88,92,100,99,110,108,103,109,106,91,115,120,122,143,151,151,150,147,135,145,127,123,120,128,105,107,114,131,120,130,131,127,117,122,113,116,117,114,133,143,162,163,161,141,135,141,134,135,136,128,130,131,132,125,126,79,71,58,85,80,82,83,79,39,39,32,31,31,30,30,27,25,23,26,26,28,30,32,29,30,29,27,25,26,23,26,25,25,25,27,25,26,25,24,22,20,21,25
waveOut,1,0,22,20,22,22,21,19,24,26,27,29,32,29,31,32,32,36,40,36,37,42,38,35,37,41,35,41,46,52,58,66,76,80,90,95,98,110,118,138,148,177,193,204,200,212,204,192,226,220,220,214,218,182,175,196,187,183,176,192,160,174,179,175,162,154,142,134,138,150,159,166,161,154,137,126,123,127,126,124,128,111,99,99,98,85,83,73,149,185,189,191,195,159,183,183,181,177,164,79,69,64,62,48,39,29,30,30,27,30,28,29,30,30,28,27,27,24,22,23,22,22,23,24,23,21,18,18
waveOut,1,1,34,36,34,35,39,39,37,45,45,54,55,59,75,89,90,90,89,76,65,74,78,90,100,131,134,138,143,144,132,134,135,147,151,151,150,156,164,163,172,168,175,164,178,176,187,185,185,179,184,187,200,214,245,229,242,228,226,190,215,204,217,214,206,185,172,153,145,146,164,161,163,145,162,156,160,157,161,140,119,109,102,95,101,96,92,85,87,88,87,78,87,85,70,68,75,68,63,63,62,62,60,60,61,66,53,53,50,48,40,47,47,49,48,49,43,33,26,28,27
waveOut,1,2,21,23,26,27,28,31,31,30,34,35,36,37,40,42,43,43,45,46,45,49,50,48,49,46,43,53,58,74,85,89,88,95,106,121,130,139,147,159,172,174,184,180,160,138,141,136,137,150,173,181,187,201,199,193,190,175,166,165,169,163,164,160,165,159,150,153,164,160,144,146,135,114,102,103,91,89,75,68,60,96,123,129,135,133,117,88,82,71,66,54,58,50,46,44,40,40,43,41,42,44,41,44,46,45,42,39,33,33,33,32,30,32,26,26,29,29,37,37,39,39,39,30,29,30
waveOut,1,3,20,23,20,23,24,27,26,27,25,24,21,24,28,30,30,32,31,36,37,37,38,39,34,32,36,45,54,53,56,58,59,56,64,74,74,82,119,125,130,139,140,137,140,153,147,147,136,135,118,123,126,121,117,118,114,129,129,158,179,214,202,205,182,164,119,118,148,175,174,181,199,174,155,166,168,159,157,161,146,137,133,160,148,159,157,151,132,127,108,101,100,93,107,116,118,117,107,102,114,113,111,121,113,92,94,92,80,98,92,82,75,72,46,51,53,53,50,43,34,41,46,45
waveOut,1,4,24,21,21,21,24,24,29,30,31,28,28,24,26,29,31,32,37,37,35,34,35,29,30,47,55,59,62,63,53,50,47,44,47,47,45,45,45,46,47,51,48,50,48,46,42,48,49,49,51,51,50,55,56,66,67,69,79,79,84,86,90,87,89,89,86,102,106,110,105,116,116,116,115,127,133,126,124,130,135,128,136,134,145,139,155,150,157,149,144,126,123,120,108,117,117,108,105,115,101,91,95,83,67,78,79,81,105,117,233,259,263,305,306,234,220,254,204,201,202,183,126,104,91,64,61,46,75,75,76,76,76,42,44,58,59,61,60,55,36,36,33,42,42,43,43,43,33,34,29,35,33,33
waveOut,1,5,27,26,27,21,21,25,27,33,34,36,34,37,35,39,51,53,51,60,60,50,53,56,50,57,65,66,68,69,63,57,61,69,74,81,84,82,79,89,84,93,105,112,114,119,125,126,122,114,124,120,117,135,141,136,134,131,115,107,106,114,112,112,118,115,105,113,110,101,95,115,117,117,118,133,127,116,116,120,103,93,89,82,72,90,125,126,228,258,282,283,290,244,222,182,152,142,103,83,82,90,92,84,84,84,78,70,79,74,74,72,62,37,34,31,29,26,28,28,27,25,27,21,25,27,28,28,34,34
waveOut,1,6,22,24,26,25,27,25,25,28,27,26,29,28,25,26,28,26,26,29,31,29,30,29,27,23,26,28,31,33,33,33,34,35,35,37,37,37,37,38,40,40,39,38,42,46,48,51,59,59,55,63,61,59,60,89,88,104,108,108,94,94,87,89,105,105,109,109,108,96,96,121,154,167,183,186,173,175,196,190,203,207,191,185,177,166,159,150,117,136,137,141,151,164,152,160,162,146,123,120,148,272,329,352,401,387,320,294,280,214,234,244,236,232,283,293,299,292,292,234,212,213,202,194,190,169,146,132,137,143,140,114,104,82,74,75,75,70,69
waveOut,1,7,21,22,24,25,25,26,26,23,23,24,23,27,28,46,56,65,70,73,66,58,51,45,41,40,37,38,33,31,31,31,27,28,30,29,28,31,38,40,39,44,48,49,54,57,57,56,57,59,56,55,55,52,58,69,77,81,85,79,80,80,78,78,94,94,97,123,139,156,160,172,176,170,151,148,145,118,113,111,107,95,97,99,105,106,103,117,112,111,113,113,103,101,100,111,112,108,108,100,81,79,77,81,90,107,108,127,125,134,134,138,145,161,176,179,183,231,232,217,217,217,190,204,204,192,184,135,84,75,73,69,75,82,78,76,72,63,44
waveOut,1,8,28,30,32,31,33,39,40,41,41,39,33,28,28,31,31,34,37,37,35,45,44,48,52,57,63,72,72,77,79,70,67,69,75,71,76,75,86,94,114,143,159,168,172,170,179,171,161,161,152,110,125,132,124,146,157,140,128,127,120,112,125,137,133,125,119,105,92,108,104,110,111,117,100,96,90,90,73,74,66,60,54,51,41,41,41,42,44,43,40,39,47,55,95,125,131,129,128,103,71,61,59,52,49,48,51,53,54,53,55,47,42,43,43,32,37,34,32,29,26,19,19,21
waveOut,1,9,24,25,25,25,25,25,25,27,24,25,24,23,21,22,21,20,22,21,22,23,22,22,23,24,29,31,32,30,32,28,59,62,72,72,73,51,49,38,39,41,39,40,37,38,36,37,36,41,41,39,38,46,50,49,52,55,52,85,86,90,93,95,66,68,69,75,73,75,81,96,98,109,107,108,102,109,105,113,116,133,132,161,185,183,182,186,160,130,135,117,117,115,115,125,126,112,111,110,93,85,80,74,148,279,351,367,392,374,312,300,299,272,275,271,228,206,205,219,205,231,235,231,211,213,140,131,125,120,86,94,98,97,90,93,62,56,60,61,57,59,53
waveIn,1,0,335,322,360,474,462,469,505,533,466,592,701,799,923,1048,1037,1049,1092,1065,1094,1113,1174,1223,1187,1128,1182,1201,1108,1137,1125,1087,1019,1055,1114,1132,1126,1202,1177,1129,1155,1116,1026,1106,1101,1085,1111,1088,1066,1082,1042,1006,1017,933,896,885,903,853,788,798,723,647,619,626,470,428,397,416,327,321,317,310,146,130,93,70,61,52,50,46,45,43,34,32,30,33,32,28,29,32,32,34,32,33,30,29,28,30,27,29,31,32,33,34,35,32,33,33,35,33,30,27,24,26,27
waveIn,1,1,24,24,26,24,23,25,23,47,70,89,109,118,146,262,324,412,467,530,575,655,709,758,774,757,773,865,923,1043,1173,1183,1150,1122,1057,925,946,940,960,929,961,920,904,872,876,933,948,970,1015,1036,958,908,876,771,728,774,790,740,759,838,794,781,758,759,686,697,684,712,691,752,779,827,855,892,834,836,796,731,657,580,443,355,304,266,209,135,104,78,67,68,64,62,62,62,35,34,32,31,28,26,26,30,28,29,36,34,34,38,40,37,39,36,33,35,33,30,32,31,34
waveIn,1,2,30,28,32,30,32,26,33,30,30,31,33,28,29,33,33,32,31,32,27,28,58,92,97,102,108,128,221,253,295,309,320,330,341,358,446,477,482,492,622,648,695,724,801,816,815,844,866,844,786,753,763,868,947,990,1088,1092,1063,1035,1007,1036,1034,1010,967,944,790,744,766,843,878,928,945,897,838,833,829,842,898,868,814,756,652,526,528,488,450,444,352,260,237,218,211,205,130,111,89,69,61,45,38,30,30,27,26,24,25,22,25,25,24,34,35,33,34,34,27,28,30,68,75,75,75,75,48,37,35,35,36
waveIn,1,3,34,28,38,41,46,46,49,61,76,82,100,180,260,262,273,273,308,303,312,317,352,315,313,351,378,367,429,447,471,492,560,545,557,560,626,664,713,879,962,945,976,1025,988,966,1003,986,1022,1071,1066,1121,1145,1102,986,1045,1000,966,1042,1057,1002,1032,1020,944,929,943,850,820,828,893,873,887,869,787,671,560,576,567,507,498,542,446,410,402,352,269,210,190,184,169,154,148,151,151,149,137,112,103,100,88,180,188,193,198,200,100,127,129,125,126,132,92,79,75,73,57,60,64,88,97,100,100,97,75,60,53,43,44,41
waveIn,1,4,43,44,46,53,49,47,47,52,48,48,48,47,48,45,46,43,45,36,41,43,47,48,60,82,87,90,129,186,475,516,554,560,570,390,409,406,395,368,349,285,223,345,362,370,381,405,350,389,461,548,681,748,803,800,800,223,345,809,802,818,808,869,907,958,935,946,933,883,798,797,794,822,794,821,784,763,754,769,721,757,839,798,775,815,895,886,986,1080,1084,1060,993,867,803,717,652,744,820,849,833,797,673,540,370,347,306,274,221,165,156,102,76,70,64,52,44,39,38,36,35,37,37,34,36,36,33,34,37,34,37,36,33,34,34,29,31,31,26,26,25,24,28,35,35,37,37,35,29,34,33,32
waveIn,1,5,28,27,29,24,25,100,272,280,292,307,324,301,348,343,334,308,244,262,273,290,305,337,302,317,317,326,379,370,375,372,383,322,373,373,415,500,529,529,620,677,632,657,728,724,736,828,804,774,771,743,751,801,869,875,910,956,941,880,910,1002,1021,1015,1057,1086,982,867,920,924,834,864,907,907,895,997,1000,1081,1121,1124,1049,1008,902,853,824,884,881,862,799,723,593,574,482,419,431,436,383,355,321,277,200,162,156,137,128,61,53,42,35,32,28,32,29,30,30,31,28,28,28,26,24,24,26,24,25,30,31,49,84,93,93,95,89,64,52,52,52,68,87,130
waveIn,1,6,83,84,89,88,72,64,72,68,65,62,59,64,74,76,78,82,71,71,105,103,110,130,132,108,125,118,132,140,139,135,167,149,134,150,143,116,120,127,217,238,260,375,446,423,481,504,442,463,530,586,679,712,726,745,704,643,671,630,606,609,757,807,947,1016,1092,1018,988,931,842,729,732,830,831,970,1010,1019,965,931,880,839,823,777,780,690,797,824,797,768,742,612,579,573,511,471,435,299,244,232,234,266,242,220,216,205,109,88,77,70,53,47,47,43,49,43,37,35,36,28,27,32,31,31,32,33,28,28,33,35,39,44,53,63,66,64,60,52,38,30,35,36,40,38,40,36,34,30,27,21,18,34,35,37
waveIn,1,7,123,156,161,166,159,135,88,80,70,55,61,59,57,58,57,38,32,31,35,34,34,41,42,39,43,61,71,74,79,92,133,344,508,588,712,813,871,887,996,943,887,878,844,734,796,809,794,871,860,869,893,937,930,995,938,904,854,796,710,848,926,925,984,1122,1066,1038,1039,990,871,822,804,847,899,884,927,1011,964,968,1025,996,922,1000,908,874,880,856,805,853,780,741,722,598,471,394,377,320,282,275,272,218,150,110,86,72,68,54,49,34,33,26,24,23,25,33,35,34,36,35,26,25,29,27,29,35,37,38,41,46,48,46,45,45,40,44,50,48,47,47,38,29,30,30,28,27,28,27,29,29,29
waveIn,1,8,28,35,35,35,38,47,44,45,73,111,113,117,124,113,88,94,94,97,140,157,203,261,294,299,437,432,438,507,611,557,625,610,566,542,557,549,646,723,666,697,721,727,661,811,819,848,867,971,906,901,847,805,715,722,735,792,872,884,906,920,902,911,909,996,1021,1041,1029,1071,1007,1069,1140,1126,1181,1137,1077,985,993,866,859,846,877,851,837,895,830,728,624,582,422,351,450,463,454,427,419,265,182,149,129,124,108,103,77,81,78,75,73,62,35,31,31,27,26,27,34,36,40,41,41,35,31,43,49,53,56,58,73,86,93,94,94,77,56,38,30,26,26,30,29,31,31,37,34,38,38,39,33,33,30
waveIn,1,9,30,26,36,36,37,35,36,28,27,30,31,33,35,76,111,123,126,127,112,86,81,116,125,124,126,122,90,83,105,111,114,111,106,80,55,44,95,107,107,108,110,96,109,147,166,170,180,193,194,209,282,342,369,445,502,485,458,504,469,454,454,530,505,504,574,623,599,651,808,819,822,858,847,793,803,852,881,934,916,897,904,879,824,834,879,958,1007,1001,1050,1097,1031,988,1092,1056,983,1086,1076,972,941,925,803,817,908,890,846,786,739,577,500,495,423,400,365,367,305,270,156,143,112,213,221,220,222,224,117,88,82,69,53,47,43,39,38,38,31,30,35,35,31,31,31,25,23,24,27,30,35,40,39,38,37,32,26,32,33,31,30,30,30,33,33,33,37,38,36,37
doubleTap,1,0,23,23,23,22,21,22,24,23,23,29,42,47,66,84,96,96,248,547,750,991,1088,1092,988,880,639,467,411,563,696,856,1050,1078,1020,909,749,434,361,294,275,207,229,206,188,174,157,95,78,71,70,66,53,67,91,95,95,96,82,52,52,49,49,49,50,46,62,66,65,64,62,49,82,88,90,91,90,63
doubleTap,1,1,40,29,35,32,33,36,37,52,148,490,655,706,840,844,717,592,552,342,315,292,540,766,945,1075,1127,1040,897,710,492,359,305,227,164,135,161,148,150,144,143,79,77,69,70,62,53,48,46,65,64,65,71,75,54,52,52,48,40
doubleTap,1,2,34,35,37,38,37,112,332,572,755,954,970,963,871,729,476,433,331,327,638,797,939,1197,1211,1097,980,851,423,321,261,232,218,192,186,146,126,104,93,93,74,65,60,65,62,62,65,66,56,63,77,78,74,74,81,68,64,67,67,52,47,63,67,67,64
doubleTap,1,3,33,34,34,27,33,31,31,30,37,33,33,37,40,35,35,38,39,122,604,857,1100,1235,1245,1102,936,640,313,251,314,627,815,1037,1044,1031,869,729,375,359,343,324,232,222,212,198,188,177,118,98,77,67,53,76,78,78,78,75,60,58,59,60,61,48,50,52,52,51,48,44,44,45,43,43,48,44,43,51,50,53,54,62,55,62,55,56,45,46,35,35,35,37
doubleTap,1,4,54,52,45,40,53,185,493,699,883,981,981,902,788,580,412,431,366,534,778,939,1034,1049,968,790,627,406,363,312,289,163,143,164,152,148,137,145,102,95,90,81,63,47,43,52,55,59,64,68,66,63,56,53,60,55,58,58,54,49,51,63,61,63,56,52,36,41,44,58,58,57,57,59,47,48,50,43,34,33
doubleTap,1,5,37,29,29,34,37,37,38,37,37,37,36,35,35,27,23,204,379,723,864,920,930,888,652,457,337,257,210,252,605,804,1022,1077,1083,939,816,587,495,457,441,355,205,157,118,107,99,86,82,75,74,65,56,53,52,48,46,55,57,57,58,57,52,43,39,42,48,53,58,61,58,55,45,39,35,44,46,43,42,42,39,35,36,38,38,42,58
doubleTap,1,6,35,35,35,35,31,27,34,34,36,33,34,27,27,29,28,29,128,325,479,657,783,813,761,681,525,320,209,205,185,206,574,730,851,922,926,783,662,533,413,379,311,253,149,106,93,78,71,57,63,60,60,58,64,57,66,64,65,65,60,49,55,58,50,52,49,47,47,49,48,48,48,48,46,45,46,42,39,41,42,39,43,41,41,39,40
doubleTap,1,7,23,23,29,59,249,736,921,1031,1092,1077,835,633,446,280,234,197,244,572,786,959,1019,1014,879,691,482,352,333,297,293,164,122,101,82,64,59,52,52,47,49,51,53,53,50,48,61,58,59,57,60,35,50,47,58,57,57,49,51,49,53,53,49,48,38,36,41,44,44,48,43,41,38,46,43,44,41,42,32,30,37,37,37,38
doubleTap,1,8,25,26,33,30,65,349,726,907,967,986,935,703,452,322,282,248,197,284,502,757,948,1062,1085,1006,831,634,433,313,284,283,206,166,144,143,88,85,77,77,67,66,55,63,59,58,59,61,53,59,61,60,55,54,46,41,41,40,47,49,45,44,47,51,58,63,65,66,59,48,40,39,32,34,34
doubleTap,1,9,22,23,27,28,27,26,27,23,22,21,22,19,20,164,473,622,740,803,801,675,548,385,243,193,198,568,676,743,814,822,631,569,492,370,335,319,185,120,82,87,71,71,69,83,72,70,66,66,55,54,51,49,47,41,41,42,44,46,44,41,47,49,44,47,47,42,38,35,39,42,56,59,60,52,49,51,56,57,57,58,46,35,35,38
fist,2,0
fist,2,1
fist,2,0,22,22,23,21,21,22,23,24,26,27,26,25,24,23,23,23,24,23,23,22,26,24,25,24,24,23,23,26,27,26,23,23,18,18,17,19,22,25,24,28,27,25,23,23,21,23,23,22,24,24,25,25,26,25,24,25,25,24,24,25,21,23,23,26,26,28,27,29,26,24,25,29,34,38,39,39,37,32,30,44,151,188,200,203,203,145,94,79,83,91,92,96,115,151,185,251,288,290,352,355,324,359,368,350,385,426,402,396,353,325,270,236,224,220,166,189,174,168,169,203,289,305,316,319,323,221,200,187,172,111,92,82,64,59,60,64,65,56,63,64,98,113,122,122,120,93,71,61,55,52,48,53,54,57,59,81,92,94,92,93,75,59,51,61,60,61,84,87,82,85,92,70,61,66,67,62,61,61,62,72,67,68,68,60,40,42,43,45,48,55,53,52,48,57,49
fist,2,1,24,24,25,24,27,27,28,29,35,34,32,33,35,29,28,29,28,27,30,35,37,44,54,66,68,67,65,60,48,48,55,56,55,53,56,121,143,150,154,155,115,91,79,75,77,145,159,162,169,201,262,268,297,355,481,474,547,562,601,554,545,532,621,632,615,722,729,653,725,716,610,612,692,647,652,658,708,645,540,526,512,369,306,319,311,273,229,233,187,136,136,130,95,84,79,68,59,54,51,47,46,49,44,47,48,50,57,59,55,58,62,57,56,60,61,56,57,55,55,54,53,54,65,65,65,64,59,55,53,50,58,59,54,54,61,59,60,59,58,52,46,41,39,37,33,30,31,32
fist,2,2,27,28,30,26,28,32,32,30,30,30,57,62,62,63,62,61,192,207,210,216,300,249,243,250,262,155,140,133,116,72,66,59,52,52,48,46,47,47,56,57,57,60,116,148,189,200,251,257,281,410,479,474,482,562,486,452,577,690,619,624,625,542,419,428,463,472,475,471,473,455,415,390,364,415,386,405,390,468,435,457,460,454,419,405,374,347,390,312,293,270,261,149,141,120,112,108,106,145,241,260,266,265,242,138,94,74,68,63,64,57,53,57,56,66,68,71,71,73,71,68,62,62,57,47,43,69,70,71,72,77,56,55,58,55,51,50,47,43,57,57,57,58,61,56,59,59,59,56,46,41,46,47
fist,2,3,32,30,26,29,28,31,33,31,30,30,26,23,30,34,35,37,41,45,46,64,83,85,84,84,80,68,66,73,75,70,66,65,55,54,56,70,73,77,85,90,92,107,111,116,268,286,290,338,407,366,372,524,555,589,664,674,616,630,614,605,642,638,644,689,688,717,764,734,669,604,618,626,705,702,723,769,727,697,723,728,689,688,661,706,780,766,809,842,881,833,788,709,757,722,699,700,705,554,419,355,275,234,233,193,175,163,129,111,99,92,99,83,71,66,71,59,51,49,49,42,43,40,42,60,63,65,68,72,58,58,63,61,60,69,64,57,58,60,49,48,60,60,56,55,63,49,56,56,58,51
fist,2,4,28,34,33,34,31,31,24,26,26,25,30,32,30,35,39,40,41,41,39,37,33,32,35,36,55,122,137,141,148,144,97,79,71,57,56,57,57,63,65,59,56,65,64,65,69,70,61,66,67,68,74,74,66,76,105,158,198,249,282,278,360,479,514,511,591,620,562,557,562,494,398,426,428,475,606,703,784,817,821,764,758,691,699,772,890,866,979,1019,1061,1069,1065,949,1061,1073,1012,1079,1162,1097,980,975,879,812,668,704,651,664,620,608,529,457,389,272,186,175,170,157,151,125,107,97,78,66,56,55,55,54,60,58,55,54,53,46,44,45,53,63,64,64,74,67,58,57,60,47,46,53,55,52,54,53,48,46,44,40,42,36,34,36,39,44,43,45,43,46
fist,2,5,27,24,25,27,25,27,28,31,29,30,29,29,27,25,23,22,21,22,24,25,26,25,24,24,23,23,24,35,53,54,54,54,51,34,40,43,47,49,51,50,58,60,85,106,114,127,139,199,201,208,212,218,301,397,544,551,594,560,608,596,596,127,139,638,682,732,694,629,626,595,617,605,591,557,562,599,717,762,782,820,771,745,738,775,726,692,650,612,642,595,607,516,567,474,475,442,427,310,222,195,115,94,98,96,87,89,93,77,69,69,67,57,60,61,60,56,66,67,63,66,73,68,68,73,79,73,72,65,60,48,55,51,54,51,53,49,68,68,69,69,66,46,45,51,51,50
fist,2,6,38,41,38,38,40,36,32,32,28,29,32,32,35,33,31,31,33,30,33,51,51,50,70,69,66,69,73,57,61,61,59,58,55,66,60,61,62,68,62,66,133,270,309,334,359,376,339,417,427,451,449,500,498,516,629,637,596,615,594,483,507,511,432,430,442,418,406,413,451,408,363,356,308,221,176,168,109,107,98,77,86,93,81,82,78,66,54,54,47,53,48,52,49,48,49,50,56,61,65,67,71,74,80,77,79,79,77,67,67,65,61,55,57,63,55,57,61,59,50,56,54,49,49
fist,2,7,38,40,42,40,39,42,43,43,42,55,51,52,51,52,39,36,33,34,36,42,42,42,41,49,77,195,200,202,204,195,93,141,183,185,185,189,161,110,99,101,115,113,119,122,131,121,182,211,222,324,352,414,451,486,455,477,443,432,394,449,439,421,447,484,430,436,524,497,492,608,630,600,600,644,606,581,577,581,553,495,482,439,528,490,463,467,491,378,428,448,430,379,354,294,238,223,219,208,158,131,112,102,94,71,63,58,44,36,43,41,42,42,39,40,53,51,53,53,59,56,62,66,67,65,70,74,77,83,79,71,73,69,67,73,74,73,72,69,61,68,65,63,60
fist,2,8,35,34,34,35,34,32,30,32,28,25,26,27,26,28,35,39,39,41,40,33,30,38,37,37,38,43,42,41,44,46,43,40,47,53,54,62,73,74,78,93,92,94,122,130,157,192,288,306,349,418,473,441,471,465,482,477,566,608,599,540,548,482,472,574,646,682,696,794,779,748,742,840,762,836,856,991,939,1042,1005,1057,957,944,788,734,611,517,439,454,393,374,311,284,180,172,127,118,103,96,101,105,106,101,96,84,76,64,66,63,55,60,61,65,74,75,69,68,66,59,59,59,55,50,44,39,37
fist,2,9,31,32,34,39,39,37,35,35,34,35,34,35,31,28,26,25,37,36,36,38,40,34,39,42,42,42,37,35,34,32,29,31,32,28,28,29,28,54,96,105,113,123,114,123,175,174,172,178,163,137,141,143,136,139,105,98,96,116,103,119,163,207,286,316,347,360,369,450,496,491,502,512,446,500,543,538,522,489,452,430,550,597,627,624,631,666,830,842,931,920,906,783,825,850,942,904,916,903,811,721,717,662,627,559,535,449,390,295,258,198,197,182,168,129,88,60,55,55,54,53,58,51,50,55,49,45,46,43,36,44,46,46,45,48,46,46,46,44,42,38,35,38,40,39,43,50,52,52
fingersSpread,2,0,21,24,26,25,25,28,26,28,32,33,30,31,29,28,28,29,30,28,29,27,31,53,74,112,149,171,179,188,191,213,213,219,217,212,216,249,244,256,266,240,210,210,230,218,212,236,242,235,248,265,265,266,248,271,269,241,248,257,216,195,194,170,136,140,136,143,144,142,132,128,126,120,119,108,104,71,53,47,51,53,52,55,56,53,44,43,40,30,32,32,36,38,41,38,38,36,49,55,57,58,59,46,37,35,38,39
fingersSpread,2,1,32,38,38,39,40,41,35,34,45,43,50,52,51,51,64,64,68,70,63,64,76,95,104,107,103,112,113,116,131,142,139,127,121,133,159,157,165,167,157,133,132,132,138,147,138,144,143,168,171,183,187,201,209,221,251,255,259,244,278,267,265,252,275,240,215,230,243,221,204,222,202,184,191,191,165,158,162,131,111,110,105,93,80,77,67,61,55,54,53,54,50,41,34,31,28,26,24,24,25,27,27,30,29,27,30,32,31,34,35,31,30,31,29,28,28,30,29,29,28,28,27
fingersSpread,2,2,30,29,32,28,29,29,29,28,30,33,38,37,39,38,42,38,39,37,38,42,51,53,66,83,80,91,94,91,77,84,71,68,69,76,79,105,130,173,197,218,215,232,231,238,235,257,251,236,246,262,288,303,308,308,315,288,273,275,253,229,213,244,234,243,229,250,211,209,191,202,174,170,164,161,158,149,128,120,112,78,68,59,54,53,43,36,35,34,32,35,34,33,29,30,27,29,30,29,30,31,32,33,32,30,28,26,25,26,26,27,29,29,32,30
fingersSpread,2,3,25,25,25,25,28,25,27,29,29,31,30,30,41,42,42,48,65,67,73,82,127,137,140,142,140,101,84,82,91,107,114,150,181,189,188,221,241,227,233,249,227,207,226,232,225,265,256,242,226,228,193,206,212,223,246,249,232,248,270,265,254,255,266,242,210,208,236,193,212,225,222,186,192,152,131,128,120,91,84,79,65,60,54,49,38,33,38,41,39,38,37,39,39,38,38,40,32,27,29,28,29,30,31,30,31,31,31,30
fingersSpread,2,4,32,32,33,35,34,32,33,30,28,27,35,45,53,80,124,132,130,135,128,96,87,89,86,78,85,88,84,78,94,83,84,87,85,75,79,84,88,101,96,103,122,127,136,145,140,124,124,109,104,144,153,152,154,177,157,166,194,206,186,183,175,149,151,159,187,178,173,157,166,133,160,169,178,157,165,139,129,140,155,152,155,152,141,139,129,140,148,160,162,167,172,163,139,127,116,84,88,85,78,72,67,49,47,42,36,28,29,24,24,26,27,27,28,29,26,27,27,26,25,27,27,28,29,28,31,35,33,33,34,31,27,28,27,27,26,25,25,24,24,25,26,34,35,35
fingersSpread,2,5,26,26,26,27,27,27,25,27,24,27,27,31,36,47,51,51,55,52,45,37,38,32,36,36,48,48,47,53,54,56,61,75,74,80,90,100,97,109,111,123,128,153,148,165,155,153,157,178,173,176,181,169,146,135,132,120,144,150,148,155,157,131,133,134,121,123,128,124,159,176,184,191,189,179,182,168,186,194,203,210,224,201,219,205,182,195,222,204,204,216,188,140,131,106,67,64,71,82,86,85,86,78,47,42,40,36,33,31,26,27,27,26,29,30,28,27,29,25,24,25,36,35,36,37,35,24,24,21,26
fingersSpread,2,6,23,23,26,28,28,28,27,25,29,30,30,33,31,27,26,31,31,33,33,34,32,30,36,47,54,55,59,61,58,62,69,67,76,85,81,86,93,91,84,90,91,101,119,126,133,139,156,143,150,162,162,148,157,150,133,121,135,166,164,167,173,181,146,141,138,156,136,157,158,190,175,174,154,159,120,125,150,146,148,159,158,141,142,140,129,121,102,101,110,126,125,148,149,137,114,118,101,96,95,103,101,92,92,88,75,65,51,47,45,53,49,47,45,47,33,32,32,33,34,32,31,30,29,25,27,29,30,28,27,22,19,26,28,30,31
fingersSpread,2,7,28,29,27,26,28,31,34,33,36,33,33,32,31,34,87,94,95,96,97,56,43,41,42,36,35,33,30,29,29,26,27,29,28,32,36,44,47,55,60,74,102,113,117,120,121,111,102,97,91,81,64,60,78,83,84,103,123,119,128,135,131,136,146,147,151,158,192,185,188,183,171,119,126,126,127,156,175,187,212,213,206,210,228,202,201,187,164,173,179,176,183,189,162,154,186,271,288,287,290,280,198,162,145,186,182,201,212,221,215,206,194,197,180,137,135,116,76,66,49,41,35,33,45,44,47,48,48,36,36,29,29,27,28,30,31,27,32
fingersSpread,2,8,22,21,21,19,23,24,28,27,28,26,27,24,24,26,24,24,23,24,22,22,21,20,24,28,29,30,31,27,24,67,132,158,167,168,159,127,99,86,88,88,66,73,78,94,112,149,146,148,168,162,150,164,167,140,140,132,161,198,206,207,238,238,248,248,246,275,270,282,285,312,277,272,248,247,216,212,206,181,193,203,191,179,189,184,174,163,167,215,221,227,232,233,220,205,193,191,182,117,108,108,103,111,109,109,138,136,134,132,117,68,54,43,39,37,33,31,27,27,29,29,29,29,25,23,30,29,31,33,33,30,30,29,27,28,28,28,30,35,34
fingersSpread,2,9,24,25,26,24,25,27,29,34,35,35,35,36,37,38,39,37,34,28,29,25,27,27,27,27,27,25,25,24,20,23,24,23,25,26,23,21,21,22,22,22,24,26,25,28,31,34,34,35,41,73,77,85,98,103,90,93,92,81,79,77,80,103,116,114,121,118,147,154,163,162,180,148,153,189,197,199,246,247,242,253,262,272,276,270,293,282,233,215,213,178,187,185,191,190,166,149,163,177,169,188,212,218,204,191,187,157,120,116,139,123,109,108,101,61,51,68,87,97,97,97,86,68,50,42,35,28,24,29,30,33,34,34,32,31,33,32,32,31,31,28,27,28,31,31
waveOut,2,0,28,27,29,28,33,31,31,29,34,30,33,31,30,29,30,28,28,28,27,24,24,24,24,23,33,34,47,54,56,52,56,55,58,62,69,73,73,72,93,103,109,131,136,198,242,249,241,251,212,164,172,226,254,262,259,244,207,205,211,219,224,226,181,147,140,134,111,107,117,102,109,120,140,127,127,132,131,110,106,107,88,72,69,70,66,69,64,64,61,59,48,49,45,46,46,47,44,44,40,40
waveOut,2,1,26,27,28,28,27,28,27,24,25,26,29,28,26,27,27,22,24,25,23,29,31,35,35,38,35,36,34,36,37,41,45,56,60,61,69,71,68,78,90,122,142,146,144,142,115,97,156,231,245,253,259,226,171,192,253,277,289,289,277,225,189,170,156,149,136,148,189,204,194,197,191,171,150,143,143,133,131,120,122,109,135,120,117,117,115,79,58,57,48,41,37,31,29,30,39,67,71,98,139,145,137,135,120,73,63,58,59,60,70,66,69,67,62,49,55,57,58,58,51
waveOut,2,2,35,31,31,32,29,27,29,26,25,29,30,26,28,27,27,26,30,27,28,28,30,28,37,38,41,50,52,52,57,58,63,71,70,77,100,116,126,148,151,163,164,160,153,166,176,191,197,205,195,178,164,166,178,184,204,213,243,244,246,235,238,214,196,186,186,201,200,204,214,208,186,188,186,179,179,165,159,159,153,137,121,118,126,129,150,162,148,129,125,124,140,149,166,167,153,124,125,121,132,129,152,149,161,153,155,141,142,106,98,95,78,66,61,58,54,69,71,75,74,74,66,55,47,45,44,37,35,38,42,44,40
waveOut,2,3,28,28,33,34,33,29,29,24,22,25,26,27,30,29,26,24,25,24,26,26,29,27,28,26,28,31,33,34,33,35,34,36,34,41,40,49,55,59,62,70,68,70,71,74,74,76,94,103,108,130,134,134,153,160,151,154,165,181,196,203,207,198,182,159,158,162,165,144,143,150,144,146,151,160,136,144,131,161,151,151,133,139,94,99,98,109,96,92,84,91,79,77,82,89,83,91,93,87,76,69,44,30,26,22,23,26,30,31,30,29,29,30,31,33,31,29,25,29,28,29,30,33,30,31
waveOut,2,4,22,23,24,25,29,36,36,36,34,31,30,31,33,34,34,28,29,25,24,23,23,20,33,37,39,41,46,38,36,35,34,28,30,29,33,31,31,31,42,41,49,49,52,44,43,38,40,40,45,45,45,43,46,79,84,90,94,94,71,68,68,38,40,40,81,101,120,143,158,167,218,243,254,253,282,267,250,237,239,206,182,173,198,205,198,186,183,152,151,155,181,185,185,176,191,183,198,203,200,197,211,214,202,193,169,125,67,59,55,51,48,44,44,41,38,37,35,32,26,27,28,26,28,28,29,27,29,27,25,23,26,27,27,29,29,28,24,24
waveOut,2,5,29,34,34,34,32,35,34,33,33,32,28,24,24,22,24,25,25,24,24,26,26,27,24,25,22,23,22,24,30,30,31,32,31,30,48,50,52,52,51,42,43,43,49,50,51,47,52,53,59,68,78,79,82,85,89,95,104,132,145,156,168,173,168,170,167,158,148,154,149,169,184,188,197,212,208,190,194,170,152,120,135,131,125,133,144,142,135,137,126,119,98,106,104,90,80,78,59,67,59,61,59,63,48,47,45,44,38,33,37,37,35,38,40,43,46,45,43,42,35,28,25,24,22,28,30,34,35,35
waveOut,2,6,30,26,24,24,29,29,31,32,30,25,25,30,33,34,35,39,36,34,34,35,34,33,34,33,36,37,39,41,43,44,46,48,49,54,68,69,71,86,88,97,125,130,134,150,149,144,148,150,147,154,153,151,140,135,130,124,120,123,127,117,118,117,111,101,99,86,85,93,108,125,131,136,140,131,123,133,132,136,132,130,113,109,111,114,113,119,116,102,104,97,99,125,125,118,116,108,70,58,68,68,66,67,68,55,63,67,88,145,172,169,170,159,107,54,50,35,34,32,35,40,47,48,51,51,48,40,38,34,32,31,31,29,28,34,37,42,40
waveOut,2,7,34,35,35,31,31,29,26,24,25,26,24,25,29,32,31,33,35,32,26,28,27,25,25,25,23,25,25,31,38,41,40,41,46,48,51,50,53,48,45,48,50,53,59,61,59,65,64,62,85,94,105,128,138,131,132,130,118,127,137,136,133,137,132,118,113,145,145,141,142,143,106,95,85,115,120,133,138,156,154,148,146,178,181,171,180,178,156,168,168,203,216,215,196,198,152,133,157,150,164,173,199,184,183,171,178,158,142,161,186,179,171,176,163,130,128,121,114,120,120,106,106,99,77,63,68,70,60,60,60,60,66,66,68,79,69,59,58,60,48,48,46,47,46,50,47,49,57,54,49,51,48,43,41,35,38,38,35,37,37,33
waveOut,2,8,31,30,32,30,30,26,29,30,31,37,39,39,38,38,36,41,40,40,42,42,34,36,36,39,41,45,54,58,56,65,67,63,79,109,119,129,135,130,124,125,145,161,188,220,246,282,284,282,290,297,286,302,299,289,288,262,254,266,235,213,238,237,222,228,233,222,203,204,199,202,212,221,223,223,201,166,151,139,145,133,128,117,97,80,75,66,57,52,45,51,48,48,48,53,49,52,53,53,50,47,41,40,38,36,36,30,28,25,28,29,35,34,35,32,29,23,22,23,24,26,30,31,31,32,31,29,29,33,30,35
waveOut,2,9,21,21,24,23,23,23,22,20,21,22,21,22,24,25,27,27,30,36,35,35,37,36,29,28,26,25,25,23,26,28,28,30,31,35,34,36,34,34,30,32,31,31,30,32,30,34,34,37,38,42,45,54,56,69,93,93,119,134,134,121,126,103,99,104,116,130,155,182,205,218,221,216,195,190,181,168,158,148,119,103,117,113,116,142,140,126,124,133,112,121,121,123,129,128,121,123,123,130,126,135,147,154,138,146,155,170,186,187,195,191,198,181,190,183,188,159,150,135,126,97,94,88,92,83,85,73,72,68,56,50,52,54,42,43,46,48,48,49,47,58,56,53,52,53,34,31,30,27,26,27,26,28,27,26,25,28,28,32,34,35,37,36,33,31,28,25,22
waveIn,2,0,75,79,116,119,107,108,139,123,127,182,199,195,213,251,232,234,253,273,266,292,295,300,324,368,340,372,399,461,452,481,469,538,542,588,650,683,653,624,638,676,662,623,617,556,412,371,387,341,316,385,389,429,433,433,359,344,283,284,290,290,292,279,260,243,239,251,223,213,182,171,151,144,139,131,124,114,101,92,89,89,61,60,63,52,53,53,51,43,41,30,29,34,33,33,34,35,37,37,36,37,36,30,30,32,31,29,29,29,27,27,29,29,32,30,30
waveIn,2,1,26,27,26,28,30,30,31,32,35,33,32,33,46,51,59,88,97,94,93,149,144,166,212,228,206,215,234,215,211,216,222,185,200,201,209,208,211,211,216,203,187,202,199,200,263,303,330,411,472,497,539,586,568,583,639,601,568,560,568,475,550,563,535,504,554,523,540,592,639,612,628,598,570,514,523,471,469,457,414,384,358,333,348,365,326,308,290,249,192,175,170,163,101,85,84,98,85,81,82,82,91,102,105,113,156,154,147,145,140,102,82,83,79,75,54,49,58,58,57,57,52,45,43,46,46,48,50,52,49,48,45,31,43,46,49,47,47,37,34,32,32
waveIn,2,2,34,35,31,31,30,32,33,40,46,86,136,170,201,227,252,277,322,326,329,313,358,362,426,425,439,424,398,364,400,393,424,432,428,455,489,460,478,533,607,617,635,657,682,607,620,611,600,522,495,470,474,475,536,591,580,572,557,508,520,582,587,590,618,550,500,520,523,533,576,568,513,484,403,329,269,255,243,210,205,205,197,184,212,203,192,188,171,119,97,80,58,47,44,38,36,38,34,29,35,38,35,39,40,36,37,42,37,37,38,37,35,37,38,38,35,34,42,42,41,41,40,30,31
waveIn,2,3,42,43,38,31,32,32,31,32,35,36,35,38,36,30,32,37,40,47,52,57,103,131,156,211,233,232,263,276,273,322,336,326,308,294,240,264,271,299,302,331,393,412,409,465,467,463,472,542,597,704,791,833,857,844,820,705,666,602,568,627,696,729,717,778,701,670,618,610,544,510,500,560,585,580,548,492,393,353,264,270,290,280,277,265,234,200,186,179,167,166,164,167,115,86,67,59,43,41,37,33,38,34,33,34,34,26,32,32,32,32,34,30,29,34,42,42,43,42,39,30
waveIn,2,4,34,40,41,39,43,39,34,38,44,49,48,48,45,44,33,34,41,39,45,57,66,67,71,77,104,99,98,99,92,63,121,122,139,150,147,116,135,120,119,189,250,327,498,533,557,600,672,630,624,658,656,567,491,516,450,436,476,518,502,589,590,602,654,679,653,644,634,674,742,752,795,822,797,814,847,871,951,982,963,917,931,902,900,875,860,851,804,795,812,878,797,740,666,576,508,536,546,575,593,553,572,566,546,566,618,595,578,525,463,389,439,423,413,406,388,233,227,208,190,132,122,82,79,67,60,46,46,47,45,44,52,61,57,55,57,48,38,32,34,34,32,31,34,33,31,35,37,35
waveIn,2,5,30,24,22,23,27,28,28,27,26,22,23,23,24,25,26,24,26,26,24,25,26,25,25,26,24,26,28,31,33,36,35,33,33,29,27,27,28,26,27,25,26,29,30,37,63,74,109,133,138,165,178,191,207,234,239,273,357,367,417,432,500,487,575,565,614,599,609,527,511,476,508,526,579,575,585,539,514,545,660,639,667,660,634,565,580,570,644,617,595,597,584,476,449,423,379,372,382,378,407,399,395,369,372,374,406,362,370,361,284,216,172,128,75,60,60,60,57,57,56,50,47,45,49,48,48,53,52,47,43,41,39,45,50,54,52,51,46,40,37,37,34,34,34,36,35,36,37,36,34,32,34
waveIn,2,6,37,34,36,35,40,38,40,44,51,51,53,52,68,68,78,79,97,89,92,101,107,119,144,150,157,180,232,232,246,279,320,329,334,347,408,423,434,582,607,592,574,619,553,520,487,485,410,349,400,398,434,431,442,415,432,435,432,400,371,373,310,291,307,333,424,505,657,684,729,737,765,676,687,683,629,579,549,484,419,392,315,302,307,279,259,230,191,151,134,104,97,78,58,61,61,61,68,59,56,52,53,39,44,42,41,36,38,39,40,38,38,38,32,30,31,35,34,34,32,30,30
waveIn,2,7,28,32,33,34,33,32,32,30,32,32,35,29,38,37,40,45,45,38,39,42,46,48,49,49,48,43,46,68,76,76,78,80,78,71,86,94,107,109,117,119,131,135,185,203,270,318,355,391,437,515,546,577,619,597,576,590,631,590,633,670,660,625,647,655,599,596,608,576,608,600,609,565,559,449,395,310,285,250,319,338,379,423,449,441,475,462,423,426,393,349,342,336,308,310,310,382,383,378,367,349,209,212,179,155,152,148,88,87,83,57,56,55,54,51,55,55,53,52,52,58,63,62,61,60,50,38,46,45,43,39,41,28,29,32,32,37,38,37,43,51,51,51,53,49,43
waveIn,2,8,34,39,39,40,39,37,35,35,37,42,43,41,44,42,52,77,78,82,95,103,99,102,101,109,120,132,142,178,197,235,261,278,295,321,299,306,295,284,269,279,265,289,316,372,382,518,555,649,651,704,681,687,700,762,793,790,815,779,766,677,668,703,763,808,830,818,804,723,617,626,607,556,575,665,669,680,677,642,546,496,460,388,350,276,290,254,249,218,224,189,171,158,145,105,81,70,61,57,55,47,45,40,36,36,44,43,51,57,56,53,54,48,38,34,32,33,30
waveIn,2,9,33,33,34,36,35,31,35,38,37,37,37,34,36,37,61,85,95,104,130,150,157,173,184,194,211,216,241,286,312,322,337,414,477,565,565,150,157,674,736,749,762,829,801,840,855,874,761,716,627,580,572,600,650,686,690,657,692,624,575,629,601,554,589,582,477,511,555,555,553,547,495,379,312,281,259,199,163,134,95,70,65,58,50,42,37,33,32,29,30,27,23,26,27,27,32,34,34,33,33,28,27,26,26,24,30,30,37,40,41,37,39,36,37,36,36,39,39,40,41,42,39,37,34
doubleTap,2,0,25,27,28,32,31,35,35,38,37,36,34,34,34,31,35,33,30,31,34,30,31,32,28,25,25,24,22,24,23,24,36,73,79,81,85,94,96,97,97,96,204,275,290,298,302,243,154,129,109,96,85,71,56,51,49,42,37,35,39,39,42,47,50,51,53,52,45,41,41,39,39,41,45,40,42,40,39,35,39,39,37,35,37,33,32,33,34,30,32,32,31,31,31,30,30,29,27,27,29,29,31,31,32,34,36,33,34,32,31,33,34,36,37,33,31,34,32,32,38,37,41,41,44,38,40,33,36,32,33,31,30,30,31,32,30,31,29,26,28,31,33,33,37,36,34,33,33,31,32,35,34,35,33,30,30,35,33,33,39,84,106,153,154,163,163,187,166,168,162,146,93,84,213,305,316,329,327,279,201,216,208,215,192,161,115,91,72,80,81,79,80,72,52,56,51,47,51,55,56,59,60,58,57,50,48,46,49,49,47,48,47,48,46,46,50,50,45,46,52,44,49,48,49,46,51,47,48,43,38,35,35,41,42,45,42,43,35,34,30,30,31,31
doubleTap,2,1,28,28,23,26,26,27,25,27,25,31,34,36,34,33,28,24,23,31,34,35,35,35,29,30,28,28,31,34,34,36,39,41,39,48,48,47,43,45,32,29,30,41,102,133,149,157,162,149,176,177,173,169,157,100,312,375,400,446,450,390,354,358,328,339,284,260,218,176,136,118,133,124,124,131,120,83,70,62,45,49,60,62,63,61,56,52,57,57,58,59,51,46,44,44,41,42,43,42,39,45,58,59,61,61,55,40,37,34,35
doubleTap,2,2,23,24,23,26,26,23,29,33,32,35,38,38,34,34,31,28,24,25,28,29,32,32,34,36,42,41,40,40,35,32,38,41,39,41,38,31,32,38,33,34,59,113,131,140,144,166,201,218,215,215,240,205,218,289,371,395,417,429,417,390,359,330,289,246,178,144,133,145,134,126,134,159,161,162,165,146,120,92,87,69,71,62,63,64,61,58,58,80,91,96,99,93,77,65,61,60,65,63,64,59,61,53,62,61,60,51,54,37,42,60,64,67,76,71,60,58,57,47,50,46
doubleTap,2,3,33,33,36,39,35,35,36,34,30,27,36,36,37,38,40,34,36,36,36,35,35,31,30,29,31,31,37,35,35,35,35,29,33,32,33,38,37,34,38,42,42,49,50,48,47,48,42,41,41,38,34,38,63,99,124,146,167,177,161,144,228,422,469,491,507,477,327,277,245,211,194,157,91,65,68,74,82,83,80,68,63,53,51,48,47,44,41,35,34,31,35,38,51,52,55,56,56,48,48,51,47,44,43,43,41,44,45,47,48,44,44,45,42,43,42,44,47,48,45,47,43,38,33,37,37,39
doubleTap,2,4,35,38,38,37,36,32,26,28,27,26,29,30,27,29,30,24,23,25,23,28,30,30,28,29,26,29,29,31,31,30,25,27,27,29,26,29,59,182,228,246,252,256,212,174,153,146,133,273,358,374,396,409,325,232,210,168,138,125,103,90,85,71,67,77,79,69,69,65,45,40,41,42,42,45,46,42,40,42,36,32,31,31,34,34,39,40,42,36,34,33,32,35,35,34,34,38,33,35,38,34,31,33,35,36,36,34,34
doubleTap,2,5
doubleTap,2,6,26,22,27,30,31,30,30,27,22,26,26,30,33,33,30,29,25,24,25,27,28,28,28,28,27,29,32,31,30,30,30,31,33,33,33,33,32,37,79,105,123,135,151,144,128,111,107,183,352,380,400,402,371,240,211,175,171,163,125,83,76,56,49,39,40,42,40,37,34,35,33,33,33,35,35,38,37,39,35,32,30,30,27,29,32,33,32,39,39,37,35,37,33,38,39,40,38,36,30,28,28,28,28,31,32,33,32,31,38,38,38,40,45,42,42,42,41,34,30,27,30
doubleTap,2,7,28,29,29,28,30,35,36,35,33,33,31,33,36,37,35,35,33,31,31,31,31,27,25,27,28,27,34,35,34,34,35,31,44,71,104,119,133,135,128,111,95,80,257,369,429,439,447,401,310,222,210,191,122,94,80,56,50,48,48,50,46,49,45,44,42,40,37,35,33,35,32,34,34,35,33,36,36,35,32,35,32,32,34,34,35,35,36,37,44,44,43,42,42,37,33,32,31,27,25,27,29,30,31,30,28,28,25,22,30,31,32,37,40,37,35,33
doubleTap,2,8,32,31,31,32,28,21,21,20,22,23,25,25,34,81,99,100,109,120,128,130,132,127,124,276,427,456,475,474,405,237,181,137,140,125,113,99,79,64,41,44,44,46,44,52,49,49,51,50,41,43,41,40,40,39,39,42,41,39,37,35,33,34,35,35,33,33,32,34,38,39,38,36,32,38,38,40,42,43,36,35,34,30,32,31,32,31,31,30,30,30,30,32,30,33,30,31,30,32,29,29,28
doubleTap,2,9,37,39,40,39,40,40,39,36,35,29,29,29,30,28,29,35,34,35,35,35,47,55,55,57,57,81,80,85,87,87,55,50,39,31,33,33,31,31,37,35,33,33,39,76,93,120,141,149,135,125,101,149,320,444,487,516,508,426,298,231,162,148,126,117,92,81,49,58,58,59,57,52,40,36,33,34,42,42,41,40,43,37,38,40,38,36,36,39,38,37,35,37,38,36,36,36,35,31,34,33,32,29,33,33,35,35,34,93,111,212,230,244,235,233,149,121,89,142,341,465,486,518,512,412,276,249,195,176,164,153,134,98,88,80,58,57,61,64,62,63,73,72,77,70,69,54,52,38,41,41,47,50,51,47,46,38,34,34,36,33,35,40,40,39,46,46,43,42,40
fist,3,0,59,54,56,56,55,52,65,103,252,285,294,307,327,287,281,280,270,235,270,409,575,763,849,893,1025,1069,1018,1024,1054,945,951,1001,988,1110,1099,1079,1079,1123,1033,1078,1083,1046,1038,1048,971,1074,1123,1106,1059,1182,1174,1155,1161,1194,1151,1027,997,1057,1074,1054,1044,1035,1001,885,894,929,1012,919,987,1014,937,786,793,674,505,505,479,414,428,370,307,298,321,292,271,272,250,213,192,193,178,155,144,145,141,148,151,160,167,195,182,177,163,158,112,111,90,92,94,92,97,105,103,93,113
fist,3,1,49,48,49,47,30,49,49,49,50,48,49,50,50,48,49,39,38,39,40,37,34,50,48,49,49,45,26,45,45,45,45,48,34,45,60,70,80,84,111,111,144,141,149,185,223,235,258,279,328,376,418,493,642,803,878,1090,1156,1232,1203,1234,1096,1042,976,995,967,1022,1051,1017,1009,1011,951,1078,1069,1044,1056,1199,1168,1276,1314,1290,1250,1283,1217,1130,1088,971,738,628,630,591,515,472,377,283,258,207,215,222,199,213,228,260,284,303,316,322,297,293,276,241,213,212,184,256,258,260,264,249,177,161,154,142,143,128,129,122,103,82,74,70,68,69,66,64,73,77,81,73,89,82
fist,3,2,41,53,57,57,62,54,48,56,55,61,62,60,49,49,47,46,47,46,46,31,43,42,43,43,44,34,46,46,47,50,48,36,33,32,28,33,45,46,45,44,40,26,26,30,32,33,34,35,32,30,33,39,41,147,170,178,186,220,205,272,358,449,500,539,588,640,719,824,923,1014,1024,1029,992,1021,911,902,851,978,886,935,946,1079,988,1147,1184,1146,1092,1088,1012,1068,1119,1197,1277,1236,1146,1102,938,764,653,561,531,585,508,489,476,443,200,208,198,170,231,237,241,253,299,264,275,273,267,262,295,312,321,344,315,291,275,248,202,215,182,160,156,161,133,145,133,148,130,137,140,136,121,144,145
fist,3,3,77,79,65,77,84,88,87,86,80,70,64,65,60,61,95,98,99,100,124,96,98,100,100,65,82,86,94,93,91,81,83,112,117,136,147,154,288,314,339,370,394,333,334,396,431,548,571,595,653,692,764,793,890,913,1023,1049,1070,1026,1079,996,974,993,1049,950,1039,980,1029,995,1053,945,986,919,842,840,799,689,787,827,698,753,777,585,512,503,373,254,215,273,282,288,305,400,353,360,358,357,239,239,211,213,159,152,159,172,153,213,250,318,320,370,348,345,294,302,242,236,209
fist,3,4,49,51,34,33,32,32,28,27,26,25,25,25,24,24,26,26,26,52,52,54,53,56,34,35,37,37,41,46,57,94,132,133,154,212,239,228,231,244,228,273,332,339,339,352,330,413,417,526,752,764,752,888,896,759,881,920,899,961,1037,965,1046,1064,1021,1006,1020,1005,942,943,950,980,857,868,798,652,512,545,474,439,436,424,324,232,246,240,221,184,182,144,142,131,135,141,128,145,150,157,173,190,176,180,196,178,160,166,151,110,105,146,137,136,140,142,99,100,100,92,102,99,97,90,117,107,106,101,102,88,83,83,87,99,75,83,78,74,67,65,57,58,71,66,74,75,73,61,70,74,73,82,96,84,74,74,70,58,67,65,63,58,47,45,71,76,76,77,75,63,63,66,64,60,52,63,59,62,64,61,49
fist,3,5,34,57,57,58,58,62,42,42,40,47,43,43,56,58,53,52,53,37,34,32,31,29,28,49,48,52,56,57,71,72,72,72,98,89,94,95,93,69,57,50,58,65,73,85,85,83,101,99,110,117,142,139,242,266,326,408,450,487,592,596,686,880,896,896,960,970,937,969,1021,1061,1124,1117,1107,1212,1229,1128,1103,1209,1122,1101,1255,1277,1274,1278,1234,1187,1171,1081,1027,1032,912,955,898,869,844,866,721,721,735,769,674,707,738,661,609,608,570,465,438,347,325,193,173,166,152,141,117,123,127,117,126,117,152,146,150,145,164,131,138,168,166,164,166,155,115,116,90,74,70,71,71,67,85,95,93,89,93,96,91,114,117,116,110,110,101,98,95,102,103,91,94,94,98,98
fist,3,6,51,54,55,52,37,37,34,53,53,55,54,54,35,29,28,25,29,29,30,84,103,139,145,152,164,178,158,157,204,219,236,247,252,223,205,215,228,242,255,267,262,248,241,280,288,288,354,366,387,413,445,408,445,404,390,347,335,271,294,323,444,521,551,655,705,768,791,870,801,773,753,691,574,725,686,597,597,658,523,525,482,526,445,365,350,342,209,156,138,119,113,105,102,101,108,130,131,137,140,135,122,122,106,104,95,97,98,99,90,107,90,100,108,109,106,103,100,88,96,93,95,95,107,107,104,114,133,126,118,114,120,87,83,84
fist,3,7,54,56,60,57,41,40,50,46,49,49,50,56,57,56,56,54,52,52,52,53,54,39,35,34,30,28,26,29,27,27,27,27,24,28,29,31,29,31,28,28,29,31,30,33,36,34,34,36,34,33,33,35,35,49,51,60,62,71,66,74,81,83,118,154,269,278,284,292,496,492,562,619,699,624,629,585,589,550,580,550,559,624,693,641,719,736,650,513,646,581,629,628,664,525,485,356,319,254,233,229,207,195,158,99,94,87,77,86,80,74,85,104,103,104,121,139,126,132,139,145,149,161,190,200,215,205,199,177,163,130,128,129,119,126,118,118,108,98,101,106,110
fist,3,8,63,70,71,69,62,61,62,62,64,63,72,68,70,70,71,60,59,54,54,56,56,43,38,34,28,27,20,24,23,24,26,25,24,28,30,29,32,31,38,42,47,47,48,47,44,39,41,41,41,44,43,41,41,41,74,76,91,100,105,104,130,138,136,135,133,110,92,100,126,127,141,156,169,199,217,240,264,366,405,506,530,742,712,744,707,775,616,622,602,620,563,686,721,697,682,678,532,571,551,544,487,543,426,427,398,391,240,214,180,137,133,120,126,129,117,156,151,144,155,177,153,170,244,239,224,228,221,145,141,136,120,109,94,100,96,101,102,99,89,127,115,117
fist,3,9,21,22,23,24,25,24,24,23,23,21,21,23,23,23,24,24,21,24,24,23,24,25,23,24,26,27,28,27,27,26,27,27,29,33,34,39,41,42,53,71,75,81,88,114,121,137,175,244,275,517,574,718,750,772,846,884,850,928,971,848,826,792,806,852,908,918,1013,1004,957,997,1161,1080,1022,1070,990,806,806,792,661,589,466,367,259,193,166,147,132,94,79,114,111,129,145,151,123,122,100,97,106,111,128,132,117,102,120,136,133,135,137,130,94,144,143,145,145,146,96,97,89,84,82,82,77,86,82,81,75
fingersSpread,3,0,20,21,21,21,19,20,19,17,17,18,20,21,22,22,22,84,137,140,238,327,371,502,558,646,681,727,688,729,644,600,573,524,536,549,527,484,549,469,486,548,555,525,548,525,458,470,442,529,553,625,625,639,582,637,654,656,647,637,619,526,494,497,429,292,277,253,173,140,126,91,79,69,53,50,39,30,31,27,25,32,48,47,48,48,45,37,52,65,65,66,64,55,44,44,44
fingersSpread,3,1,24,24,25,26,24,24,24,26,25,25,25,24,25,24,28,43,131,152,171,181,227,215,221,222,232,220,244,248,273,326,337,372,367,411,388,376,351,471,480,602,648,690,643,627,550,516,466,533,507,502,491,491,413,453,453,499,554,572,600,589,568,511,535,489,488,541,554,527,523,546,491,479,467,499,465,439,411,391,317,266,243,226,162,126,109,85,73,63,39,36,33,29,28,25,21,24,22,24,24,24,23,23,22,22,21,21,21,22
fingersSpread,3,2,21,18,19,19,20,21,20,20,22,21,21,21,24,23,24,24,25,23,23,23,22,33,190,313,362,389,429,401,341,317,298,296,465,474,535,562,567,472,470,431,405,411,437,511,630,652,666,702,658,542,551,512,437,465,498,483,554,574,578,578,686,678,663,659,698,597,566,554,603,562,550,598,634,670,689,709,658,612,502,519,488,508,569,605,538,542,564,496,419,375,342,227,210,183,168,132,99,94,81,81,78,63,44,41,32,28,24,22,21,21,21,21,24,24,26,24,25,24,23,19,21,20
fingersSpread,3,3,20,20,21,21,20,20,20,19,18,20,19,19,22,25,92,141,145,156,223,226,215,219,244,202,203,210,206,175,168,223,209,210,236,238,186,262,306,289,306,336,330,300,323,313,283,319,385,378,383,418,385,347,349,360,359,483,493,535,587,580,472,449,436,390,377,382,408,372,366,401,434,413,433,499,464,432,508,517,451,465,472,404,410,391,404,401,397,358,345,336,330,302,301,348,310,298,295,267,211,200,164,158,152,107,104,96,84,77,64,54,45,38,32,29,28,26,25,26,24,23,25,25,24,23,21
fingersSpread,3,4,22,21,22,23,22,21,21,22,23,22,22,22,21,20,22,22,23,23,21,20,21,21,36,99,193,226,258,276,272,242,227,237,241,311,325,364,357,378,391,414,414,456,549,599,597,606,594,548,468,473,528,557,560,583,705,677,650,725,854,800,813,882,846,738,711,679,672,621,609,657,715,651,639,594,497,372,318,279,294,275,285,265,248,185,149,86,64,52,36,29,30,29,24,23,22,19,20,21,23,23,23,23,24,22,23,22,22,21,20,18,20,19,20
fingersSpread,3,5,19,17,20,22,23,22,22,24,22,22,22,25,22,22,21,22,20,18,19,20,19,34,66,78,83,154,159,183,197,211,181,215,220,254,260,293,293,312,300,359,340,392,411,440,468,517,490,489,491,484,473,513,542,556,560,572,556,529,577,583,581,576,568,515,468,422,433,438,446,445,468,583,561,530,555,543,423,422,408,401,410,385,452,507,515,489,497,552,509,516,539,554,522,560,519,574,582,530,477,477,402,310,265,244,203,124,102,91,82,69,58,54,50,37,30,25,22,23,25
fingersSpread,3,6,20,20,20,20,20,20,24,26,25,26,26,23,20,20,21,21,21,22,23,21,20,19,18,18,18,19,31,31,63,64,69,69,73,69,120,131,130,139,137,110,97,132,130,161,179,209,202,271,302,333,389,442,439,435,474,438,437,469,471,449,469,457,433,425,399,378,411,409,457,465,472,452,492,447,500,510,495,519,569,517,493,507,468,409,412,432,427,383,375,383,379,430,438,467,500,537,551,600,604,584,563,528,466,430,388,334,253,239,210,198,209,200,145,141,138,99,70,61,49,43,32,26,25,24,24,24,26,26,23,23,21,20,21,21,20,23,22,23,22,23,20
fingersSpread,3,7,390,352,344,436,445,427,502,531,468,473,534,476,483,551,560,538,515,529,577,562,549,557,604,511,593,610,619,533,557,482,523,522,615,598,603,558,606,565,542,550,567,505,436,489,494,444,442,480,472,480,527,554,520,560,527,457,399,419,278,257,242,237,190,163,148,190,187,164,166,160,100,95,76,59,47,34,28,24,25,25,26,26,26,26,27,27,26,26,26,24,24,25,23,26,26,25
fingersSpread,3,8,21,23,21,21,21,20,19,22,23,25,25,26,24,24,21,22,22,23,22,22,21,22,20,22,21,44,90,108,113,123,121,105,88,106,107,123,145,221,271,274,288,316,300,310,359,382,360,409,376,375,349,358,296,335,319,316,324,391,527,561,591,625,643,591,592,605,629,605,564,577,644,637,663,725,712,713,712,787,783,849,779,795,703,636,549,535,446,393,359,273,255,216,189,225,210,210,207,187,93,87,65,56,48,42,29,24,28,26,27,29,27,24,23,23,20,24,22,24,23,23
fingersSpread,3,9,20,19,21,21,22,21,22,22,22,22,22,24,23,23,23,22,20,20,19,38,38,39,40,42,25,26,24,23,21,21,19,21,22,22,47,55,56,57,56,40,40,39,51,55,65,67,78,93,105,118,115,117,127,125,115,124,120,104,100,97,92,132,136,172,188,201,180,228,241,272,281,285,264,262,275,299,301,311,323,320,292,341,346,386,403,470,526,588,560,606,604,543,483,543,533,555,565,632,607,585,572,600,539,575,590,639,653,678,643,617,577,606,580,623,631,621,534,602,575,556,575,585,540,504,486,413,398,435,422,433,405,430,315,329,308,302,340,331,305,310,307,185,167,135,90,82,61,47,42,38,33,23,20,19,21,21,22,23,22,22,22,21,21
waveOut,3,0,33,32,29,32,38,40,40,43,43,41,39,38,37,34,31,32,32,28,23,24,22,21,22,21,24,25,32,39,56,66,71,78,87,102,102,24,22,109,111,120,121,118,115,123,126,136,151,151,152,144,136,142,149,141,141,147,131,132,187,211,254,267,275,256,258,211,188,175,165,137,151,151,156,151,146,135,144,148,151,181,186,186,268,274,276,275,282,202,199,169,170,183,190,175,235,276,261,250,276,272,232,248,280,306,290,309,309,280,244,272,256,240,244,228,173,180,169,166,159,153,119,121,117,129,144,144,145,145,148
waveOut,3,1,59,60,73,81,88,94,94,87,80,76,74,73,79,89,90,75,89,89,88,107,121,128,126,133,136,133,122,124,113,124,117,117,116,120,93,89,101,106,109,115,144,139,154,190,195,184,195,222,191,182,183,177,233,243,246,241,245,176,180,184,183,188,165,163,180,179,174,197,216,226,294,308,442,436,433,397,405,250,246,230,225,200,211,217,235,235,221,232,223,218,227,243,232,235,215,228,207,178,182,188,166,164,168,155,153,134,145,140,143,134,134,127,121,109,109,110,110,107,93,94,98,91,98,107,122,117,115,118,106,84,81,84,93,105,99,98
waveOut,3,2,64,67,69,86,97,100,102,105,86,62,59,66,74,74,77,76,66,71,71,69,66,65,41,65,63,63,64,64,38,39,42,43,46,51,53,66,66,68,72,74,64,76,80,78,80,90,89,85,92,96,108,112,120,124,134,156,189,203,201,196,176,143,122,153,161,159,181,184,160,153,157,131,131,136,131,122,183,182,184,191,194,140,131,127,138,137,185,200,213,202,208,222,229,221,221,224,200,183,172,176,364,377,374,379,379,199,155,153,152,154,148,124,151,156,153,154,150,161,211,232,234,235,227,177,156,170,179,176,204,216,199,207,199,182,151,151,124,118,80,80,87,88,80,79,79,93
waveOut,3,3,50,50,40,40,39,41,43,43,41,39,40,40,42,41,43,39,33,33,31,29,27,30,29,30,43,50,56,67,69,64,66,72,77,96,102,103,112,115,101,101,108,97,90,95,102,98,106,104,108,102,105,94,101,91,96,95,101,97,95,85,85,84,90,99,100,97,96,95,87,88,77,72,67,70,83,96,102,101,105,118,113,113,113,111,83,85,82,78,76,78,82,101,109,116,119,113,101,98,92,88,91,84,76,74,76,63,59,58,48,44,44,49,44,50,53,53,50,53,51,43,43,61,65,124,128,131,126,127,76,88,85,82,85,79,57,55,72,64,66,66,65,41,37,28,54,55,57,58,59,36,35,31,27,25,47,51
waveOut,3,4,34,34,34,41,58,55,56,56,54,32,35,32,45,58,64,73,72,67,55,52,36,37,55,56,55,61,62,49,51,68,83,87,94,119,123,143,166,167,156,188,179,175,187,233,210,214,220,225,178,201,213,205,187,203,202,227,226,235,225,226,183,203,214,215,201,205,186,159,197,217,210,212,233,211,181,214,216,202,187,188,144,141,141,153,156,172,167,165,163,160,145,136,122,133,138,132,126,124,93,58,72,73,72,68,71,48,41,38,48,47,66,66,66,59,57,34,32,32,29,28,49,51,51,50,51,30,29,52,52,52,52,55
waveOut,3,5,19,21,22,23,23,24,24,25,24,23,24,23,24,25,25,24,25,23,21,22,23,23,24,26,25,24,26,28,28,30,34,48,81,125,135,142,193,187,168,162,161,96,91,82,88,93,98,101,107,121,132,128,136,136,129,121,123,126,148,156,160,171,178,171,169,169,165,154,155,181,193,194,194,186,154,135,131,124,125,132,128,125,121,124,123,121,117,128,122,121,139,176,167,174,176,173,161,167,155,150,146,130,130,132,128,117,120,125,120,117,207,208,215,240,251,224,225,234,212,209,169,152,116,111,106,123,132,134,153,149,130,121,138,120,139,144,141,120,116,93,80,85,87,95,81,91,90
waveOut,3,6,144,174,182,217,220,214,195,187,174,173,174,171,168,203,202,202,217,224,180,193,187,174,159,158,167,168,192,204,234,221,233,247,248,227,242,276,250,253,240,222,185,174,181,187,185,166,160,138,149,161,158,159,194,178,186,186,191,147,153,128,124,131,138,129,181,182,187,181,182,133,125,125,120,128,132,132,108,104,97,80,78,68,70,56,58,54,49,56,51,47,46,47,34,33,34,103,131,151,160,164,147,141,128,120,122,109,88,74,70,64,55,62,63,62,62,70,63,68,68
waveOut,3,7,26,24,29,29,29,30,31,27,29,34,37,37,38,36,51,68,72,74,75,64,44,36,34,32,31,36,38,42,44,45,47,45,49,86,95,119,159,164,152,168,161,143,140,187,173,169,160,157,103,111,115,118,136,171,180,216,217,226,225,227,203,221,206,186,171,179,152,164,158,154,131,125,112,125,129,132,140,146,134,139,129,122,105,94,94,97,97,96,102,106,108,121,121,135,154,192,239,253,246,231,201,146,128,144,154,157,164,184,188,254,295,318,364,369,327,317,296,250,268,302,291,294,275,254,211,217,208,200,204,224,202,210,228,218,197,209,197,176,167,175,169,203,217,220,211,211,169,146,135,140,149,152,156,179,173,151,142,163,146,139,129,131,113,98,96,97,92,81,83,77,74,70,55,91,124,126,155,165,155,143,175,174,173,165,166,133,103,92,89,71,78,73,81,79,73
waveOut,3,8,24,25,31,31,34,34,33,31,31,32,32,47,49,53,52,51,39,38,32,30,33,32,27,26,30,30,49,51,56,56,68,58,58,54,59,199,339,364,387,392,354,226,185,132,116,66,53,52,47,71,101,155,186,190,197,385,401,392,392,406,244,201,198,199,157,128,111,136,144,141,145,141,111,101,110,102,98,99,90,79,81,87,94,105,113,115,106,116,117,115,121,122,106,111,107,98,108,106,88,98,97,93,99,95,83,80,70,75,74,74,73,70,58,62,58,65,72,75,73,72,65,61,57,53,51,54,48,47,50,49,42,56,80,86,89,89,83,62,50,43,45,42,41,42,43,38,39,39,35,37,55,70,70,70,69,57,36,34,32,28
waveOut,3,9,26,28,28,30,26,28,26,27,26,26,25,26,25,26,25,24,25,25,26,27,27,28,26,25,29,31,33,45,61,62,66,67,61,65,79,92,111,156,158,175,186,180,154,205,203,191,201,203,152,159,164,168,166,172,151,154,151,168,165,170,162,162,154,155,160,175,168,170,175,183,168,200,194,195,182,182,146,148,170,200,203,210,209,212,188,193,181,173,152,153,171,184,184,170,172,160,152,147,152,161,176,178,183,183,164,153,149,163,176,197,179,177,163,167,152,177,192,197,174,165,150,149,145,155,156,136,113,102,80,66,64,63,63,88,106,115,124,174,172,174,206,218,271,284,287,277,263,177
waveIn,3,0,185,177,175,178,157,146,120,131,132,112,113,112,104,86,81,110,111,105,102,135,128,167,170,196,192,286,305,332,354,388,432,431,474,561,660,610,651,686,669,616,646,661,762,824,823,868,933,939,928,1000,968,976,903,938,895,900,901,958,886,903,982,905,884,946,875,755,833,763,698,822,859,763,727,681,605,700,755,823,886,886,873,869,828,789,720,612,587,635,608,610,640,579,493,435,401,286,258,217,202,185,224,222,198,196,194,115,102,95,94,112,111,123,121,125,103,91,89,102,91,101,108,101,88,110,106,112
waveIn,3,1,68,76,78,82,83,66,54,75,72,75,73,78,74,81,88,96,103,121,188,229,256,290,350,348,415,414,402,408,458,427,439,455,468,555,560,631,653,705,651,743,712,726,716,732,779,790,837,851,929,854,862,841,847,818,820,823,841,846,765,722,705,746,692,677,728,780,733,835,929,910,866,887,766,648,718,718,684,796,814,776,852,956,869,893,857,797,647,730,714,841,821,785,728,770,657,661,676,729,701,666,694,726,658,642,637,745,790,875,859,857,712,597,416,343,336,311,302,294,287,242,218,185,157,133,121,88,85,98,97,76,74,79,66,67,65,124,139,141,148,150,110,89,83,73,73,68,62,57,78,76,90,97,99,85,95,82,77
waveIn,3,2,57,54,58,69,67,67,71,72,60,58,56,54,56,60,65,86,103,111,129,141,174,222,229,225,260,278,310,307,375,386,497,520,572,570,594,580,621,753,828,880,869,846,801,766,737,755,871,811,788,760,735,584,636,619,704,694,674,663,678,719,740,803,783,814,713,740,739,821,857,846,860,843,791,763,792,752,761,702,687,654,668,744,848,800,832,831,769,693,775,825,804,783,853,868,783,798,773,661,591,587,601,631,672,630,636,607,579,560,591,597,602,634,665,667,696,691,668,701,694,690,693,741,645,644,597,554,491,535,528,505,486,413,322,246,240,235,245,235,192,166,146,128,106,99,92,90,59,60,60,59,60,63,59,59,58,64,65,62,58,58,55,68,67,68,68,76,63,59,58,62,108,109,112,113,112,68,63,63,74,93,94,92,94,86,68,62,66
waveIn,3,3,72,85,75,77,80,79,69,71,64,76,78,77,81,92,83,85,85,87,76,71,67,65,62,59,61,99,96,94,97,107,83,90,90,94,84,92,99,115,174,218,259,283,300,314,315,320,340,359,506,634,669,720,761,771,706,690,643,600,465,532,523,614,642,653,652,734,671,655,679,639,602,690,724,736,720,696,681,669,634,604,629,529,520,668,707,655,663,664,584,563,610,658,645,596,632,632,643,688,685,656,687,663,667,704,723,764,755,747,716,697,592,569,523,538,535,527,527,509,458,462,451,555,588,630,714,878,870,913,893,847,724,637,528,516,434,299,293,253,189,152,130,98,74,69,61,59,34,33,31,30,37,36,37,40,49,50,50,48,46,38,32,30,34,40,40,38,38,45,40,41,41,41,33,32,33,33,33,31
waveIn,3,4
waveIn,3,5,48,46,42,47,52,50,50,48,44,39,42,49,51,49,52,53,49,48,49,46,42,41,50,49,54,61,74,98,135,168,211,213,223,220,215,271,290,330,362,389,353,443,420,439,466,538,538,596,631,643,665,677,678,692,694,703,730,725,770,846,860,872,915,923,881,849,782,717,661,657,612,638,740,719,720,743,773,684,668,682,765,758,814,875,863,789,761,707,649,665,646,624,669,644,559,525,509,381,317,338,328,296,276,313,238,231,215,201,121,108,103,97,96,83,73,74,73,73,65,57,62,71,74,73,73,77,71,67,82,95,89,86,86,72,56,64,66,72,91,90,82,80,77,56,54
waveIn,3,6,56,52,94,104,104,108,116,100,107,128,124,134,144,158,206,226,225,263,278,292,367,392,388,412,395,363,347,500,486,509,549,607,670,728,773,849,872,805,809,856,805,792,866,879,831,786,752,659,646,594,687,709,708,741,858,867,870,919,896,807,912,949,901,895,912,802,734,722,709,742,669,668,623,563,438,454,418,411,403,389,285,268,219,184,160,132,125,121,119,87,72,66,66,70,63,63,63,61,70,72,74,78,81,68,69,67,60,56,51,62,63,67,66,62,52,57,61,60,57,53,49,40,39,50,51,49,47,48,34,35,41,44
waveIn,3,7,47,47,50,51,51,44,47,54,52,53,50,51,51,69,112,141,206,319,425,474,521,529,596,574,562,581,614,592,593,678,677,678,622,668,665,704,734,915,953,954,944,926,821,784,783,750,758,708,718,724,736,728,697,655,673,657,688,771,921,904,957,1040,1031,896,914,847,745,678,703,731,836,818,860,856,766,649,654,577,530,553,581,585,716,717,680,665,581,433,383,341,289,324,321,297,276,291,254,189,183,181,114,106,92,83,81,78,50,46,40,45,43,43,40,42,32,32,32,45,45,50,52,55,53,51,47,44,41,31,34,32,33,30
waveIn,3,8,34,32,34,32,34,33,36,37,47,64,76,83,85,87,94,96,99,152,167,220,226,237,275,317,387,505,627,652,704,721,823,804,837,822,839,821,804,855,871,899,803,852,776,787,781,814,749,784,808,792,813,854,848,817,813,822,885,897,871,833,867,737,767,845,947,879,907,876,837,742,694,692,742,769,777,898,901,853,832,814,758,746,729,735,755,724,719,676,601,552,485,468,444,402,408,370,318,321,367,347,336,328,317,276,191,190,183,203,181,166,162,157,112,96,82,76,71,57,54,60,59,57,57,46,43,49,52,71,83,81,78,78,88,80,81,80,94,112,108,109,112,101,60,60,73,70,67,62,69
waveIn,3,9,45,47,44,42,49,70,73,73,76,74,52,51,57,61,61,69,106,201,208,217,250,262,257,270,274,252,247,197,195,185,210,222,239,228,246,278,356,356,420,460,517,520,592,617,626,605,677,713,712,698,730,667,646,608,668,600,649,639,654,612,682,673,652,663,708,680,696,772,839,836,860,866,835,814,782,734,740,744,712,741,775,686,673,632,600,559,546,449,426,363,328,335,315,292,261,225,176,152,131,113,126,132,122,122,120,91,73,62,57,59,61,55,90,98,99,96,108,83,75,73,77,83,87,90,91,87,64,56,51,65,72,63,63,64,65
doubleTap,3,0,42,40,39,33,33,39,40,37,40,39,35,52,55,53,58,70,58,74,75,75,95,99,95,101,128,294,335,350,355,382,276,249,280,282,305,431,442,417,452,452,401,396,395,370,334,278,255,253,235,208,157,142,156,136,147,141,147,125,121,96,103,98,95,92,97,96,91,95,106,100,126,133,126,115,116,102,111,109,113,125,118,122,131,132,120,112,90,93,85,87,84,76,79,83,79,79,79,61,66,94,95
doubleTap,3,1,69,75,74,77,76,71,66,67,64,62,75,79,80,81,82,49,43,54,60,61,62,61,53,156,194,216,219,244,214,280,335,370,386,522,563,542,527,542,538,501,501,502,464,301,215,177,149,180,184,166,152,156,135,121,121,124,136,114,113,107,110,84,75,67,79,74,86,84,102,94,89,90,98,90,89,89,76,71,59,57,85,86,86,100,102,80,90,88,73,81,82,68,75,79,70,72,73
doubleTap,3,2,42,71,73,75,75,85,77,78,79,78,69,77,75,71,74,74,47,46,70,78,80,79,80,111,145,165,171,178,159,182,308,344,355,453,450,401,496,541,510,515,516,533,615,633,623,634,547,429,361,356,315,285,220,180,173,135,127,161,161,157,178,166,132,132,133,103,101,113,108,101,103,112,95,99,101,110,110,109,104,106,133,126,127,125,119,83,80,77,77,99,90,101,101,103,85,92,107,124,121,122,123,103,83,83,85,177,234,239,247,261,230,186,199,194,336,408,425,432,533,559,533,547,609,638,565,538,518,442,261,222,226,202,198,187,178,156,163,141,133,141,142,128,124,125,117,123,128,139,136,127,123,120,93,102,102,105,97,98,94,102,90,93,101,93,98,106,103,89,95,80,68,109,116,112,112
doubleTap,3,3,85,87,92,92,77,77,75,76,78,79,78,77,67,83,79,81,80,82,67,72,67,77,74,95,92,95,88,89,69,71,74,77,77,130,294,381,430,435,428,362,349,383,475,472,460,550,527,455,463,488,345,344,334,345,315,293,226,211,200,168,145,154,166,131,132,129,102,105,114,140,162,166,155,143,121,119,115,110,115,108,86,86,104,104,101,89,93,80,83,88,90,98,93,101,108
doubleTap,3,4,58,58,106,117,112,116,128,108,98,97,196,299,344,358,364,380,496,520,538,539,560,500,488,469,511,532,517,490,525,490,405,361,347,278,262,247,146,122,108,130,130,133,195,203,191,194,199,143,135,143,139,121,120,116,104,105,103,107,107,94,82,113,105,101,102
doubleTap,3,5,69,62,69,70,72,93,102,101,104,106,261,419,513,524,560,568,541,477,481,454,434,449,492,488,563,599,604,572,568,502,415,290,247,240,219,192,177,176,164,128,153,145,165,163,156,159,149,126,125,128,120,128,127,133,139,114,114,120,127,114,112,106,103,88,91,86,75,65,70,67,68,71,73,80,93
doubleTap,3,6,35,48,61,62,64,64,53,34,59,57,58,60,65,72,78,90,115,154,148,213,296,332,323,366,393,430,441,440,418,499,619,633,644,719,667,510,474,464,329,268,227,185,200,214,193,203,206,177,168,181,167,163,151,149,126,135,135,136,115,116,95,101,105,99,102,109,97,91,81,93,92,93,288,394,486,496,501,432,406,333,411,415,427,407,492,432,432,481,479,365,353,341,237,243,228,219,224,227,140,133,129,128,99,125,136,138,131,156,131,124,130,137,111,115,118,118,109,101,95,78,77,95,90,89,89,103,99,101,102,184,193,192,196,214,346,384,394,402,426,334,353,390,382,351,380,364,329,329,357,348,348,350,359,332,270,201,176,169,154,162,153,144,137,133,127,124,127,114,126,114,110,109,139,129,120,118,123,87,106,109,117,114,109,106,140,135,135,136,127,106,113,106,112,117,99,92,99,92,116,170,177,183,205,209,213,218,214,235,352,524,568,572,562,538,459,421,434,460,497,429,438,443,460,412,462,457,471,447,406,313,299,236,183,160,155,143,166,163,169,186,196
doubleTap,3,7,78,94,86,94,93,101,93,97,99,113,106,102,94,100,80,75,75,76,68,74,103,332,434,459,469,487,456,386,393,391,425,367,391,364,454,478,487,460,456,357,239,179,163,154,160,164,143,121,126,114,99,96,107,113,114,108,107,112,92,97,99,108,98,95,87,88,95,82,83,90,97,77,97,96,88,89,100,83,95,92
doubleTap,3,8,65,66,62,63,79,80,99,89,97,84,96,82,111,121,145,161,191,222,219,275,354,406,414,426,473,437,457,472,483,408,470,419,383,358,448,385,371,367,373,240,185,152,138,104,137,133,124,119,118,92,88,88,92,92,80,85,92,85,93,97,99,95,100,105,92,99,114,119,112,114,117,98,113,163,172,170,190,210,191,208,228,236,234,243,240,226
doubleTap,3,9,105,119,126,122,98,95,95,104,108,101,105,90,110,111,116,111,113,93,97,156,169,174,207,228,212,233,397,498,535,546,546,460,437,463,464,466,467,435,419,406,432,484,462,445,441,414,334,283,200,200,163,148,197,200,193,197,192,150,144,122,111,120,99,100,99,101,104,105,115,130,136,131,126,111,105,108,104,116,115,139,132,131,112,111,72,80,80,81
fist,4,0,21,23,22,22,22,21,20,20,21,23,24,26,26,24,23,23,21,25,27,26,26,29,27,27,29,29,25,26,24,25,25,25,25,24,24,22,22,22,25,23,25,29,30,28,30,30,68,113,118,150,155,177,156,158,132,132,145,250,281,344,386,419,456,520,564,626,720,744,861,904,982,1055,1162,1137,1166,1174,1124,1074,1065,1065,1022,1017,968,1057,1072,1035,988,967,928,808,802,868,832,637,596,571,559,585,582,579,568,398,335,378,377,313,262,227,138,157,159,162,158,199,206,221,233,248,208,185,172,163,196,194,189,188,182,113,121,143,193,191,192,238,234
fist,4,1,212,254,272,287,268,265,265,245,202,224,237,244,261,308,303,373,370,434,493,522,514,535,513,504,491,482,591,621,636,688,857,836,798,808,958,885,915,1031,1185,1123,1139,1124,1166,1083,1074,1133,1115,1088,989,1039,951,1045,1071,1155,1070,1083,1056,944,860,848,757,622,595,618,695,884,961,996,953,867,660,522,565,545,618,627,667,536,648,554,528,488,586,514,564,575,553,474,488,445,456
fist,4,2,22,22,22,21,21,20,22,22,23,23,22,24,23,22,22,24,25,25,24,27,25,22,21,23,19,20,20,21,22,22,24,24,25,23,24,23,20,19,21,21,22,22,22,19,20,20,21,24,23,23,23,23,22,21,22,23,25,26,25,25,24,23,20,24,23,23,24,25,24,25,23,23,22,22,24,25,24,28,27,50,135,159,178,225,230,229,277,566,573,730,857,958,937,991,938,902,858,828,909,1009,1122,1241,1321,1347,1319,1276,1345,1264,1234,1341,1387,1260,1350,1366,1273,1234,1264,1263,1184,1157,1117,1064,964,1009,931,883,881,830,756,814,905,804,761,705,610,310,238,206,176,169,143,124,62,55,49,33,32,26,27,26,26,28,29,26,26,24,24,22,22
fist,4,3,20,18,21,19,22,23,25,24,25,23,23,23,21,23,25,24,24,26,24,22,23,22,23,24,28,27,31,33,33,102,112,132,175,195,322,359,438,550,621,629,744,826,833,970,1149,1255,1400,1416,1441,1356,1281,1188,1221,1095,1171,1146,1186,1192,1274,1163,1160,1019,1120,1055,1068,1043,1152,1136,1210,1242,1265,1166,1060,934,980,987,1012,1054,1165,1127,1223,1254,1245,1234,1235,1186,1237,1183,1162,1140,1171,1005,961,977,932,776,840,878,707,655,703,611,499,478,450,180,146,122,79,66,47,44,41,37,31,28,25,24,25,23,24,27,30,31,31
fist,4,4,26,27,27,27,115,133,141,176,190,172,158,155,165,165,151,153,157,181,177,176,187,222,207,207,313,397,415,406,467,466,449,617,659,675,675,176,187,713,748,676,655,726,874,863,876,970,994,866,917,991,936,876,899,969,942,1003,1066,1179,1177,1196,1216,1189,1165,1182,1219,1273,1277,1225,1177,1081,1043,1105,1069,1032,1053,1121,1058,1083,1078,1039,860,920,1039,1022,1088,1144,1060,906,868,800,714,688,619,705,637,548,483,472,285,344,358,357,337,325,193,111,126,124,125,132,111,81,76,102,112,115,115,115,92,56,52,50,50,50,51,50
fist,4,5,21,20,24,22,23,23,53,176,184,291,315,331,391,436,393,399,396,296,223,195,144,150,198,374,409,423,462,453,456,543,610,752,801,794,852,825,708,792,786,828,1052,1199,1203,1218,1356,1305,1323,1336,1442,1249,1175,1098,1075,958,1031,1117,1081,1105,1136,1334,1287,1312,1409,1415,1216,1215,1180,1052,1080,1114,1079,1150,1176,1054,991,954,822,685,689,573,577,656,760,854,882,858,780,627,510,445,427,364,345,275,256,244,240,234,160,154,173,144,119,118,115,72,68,62
fist,4,6,24,25,28,24,27,118,141,145,150,191,174,192,222,232,209,374,591,741,849,944,972,1011,1043,1049,1183,1184,1106,1142,1126,954,1002,1020,961,1004,1049,984,998,924,976,1003,1045,1043,1198,1209,1177,1206,1266,1217,1176,1152,1112,1103,1153,1091,1088,1068,1072,1005,1028,1112,1186,1168,1040,1029,908,836,812,883,900,921,871,750,673,542,444,321,250,187,134,128,127,147,154,156,134,137,133,123,116,109,101,113,117,114,116,111,62,65,71,67,68,66,50,37
fist,4,7,25,26,21,20,19,21,19,21,23,22,23,23,22,131,143,149,153,154,87,153,158,157,206,237,206,251,278,322,362,437,498,656,748,797,859,1025,1007,1103,1228,1241,1215,1203,1160,1122,1151,1141,1227,1252,1219,1249,1320,1315,1331,1319,1333,1371,1368,1313,1266,1257,1150,1176,1178,1184,1073,924,829,782,772,809,906,836,746,754,697,583,529,519,426,324,220,167,132,113,176,168,170,168,159,80,64,52,38,31,27,27,25,26
fist,4,8,23,23,24,27,22,24,26,25,22,24,21,19,24,22,20,26,26,27,28,28,23,22,18,19,21,22,26,43,43,43,167,204,280,405,583,702,776,931,933,900,829,777,558,596,645,681,752,854,949,913,904,867,970,986,1089,1224,1242,1236,1214,1257,1163,1246,1196,1164,1048,1184,1106,1119,1146,1132,1027,1021,1052,1146,1148,1062,1153,1130,913,940,998,1024,1013,1128,1083,1073,896,782,660,635,541,515,468,361,277,195,187,166,132,110,98,80,74,48,37,36,35,36,34,28
fist,4,9,21,21,21,23,22,23,22,29,26,27,27,27,22,24,23,23,23,24,116,125,206,233,241,218,218,165,136,135,196,226,406,451,537,760,844,816,885,857,673,700,732,694,785,848,774,814,919,968,994,1047,1051,1022,1073,1134,1196,1225,1221,1280,1256,1263,1256,1234,1130,1106,1068,1087,1164,1178,1123,1088,1046,993,879,856,823,710,537,453,425,291,324,319,318,302,251,153,129,63,52,41,33,32,31,29,30,29,28,25,27,25,25,23,25,23,24,22,23,24
fingersSpread,4,0,22,23,22,23,23,23,23,22,19,20,20,135,168,315,457,707,749,775,780,736,627,636,693,681,691,586,557,549,665,657,681,656,598,484,494,477,492,453,414,482,504,544,543,607,541,544,490,496,376,348,446,531,534,547,561,459,347,328,306,297,265,235,231,235,183,172,171,166,113,137,189,190,192,191,152,72,60,53,48,42,48,50,49,48,46,28,26,21,24,23,22,21,24,20
fingersSpread,4,1,127,157,325,335,344,333,330,295,296,297,303,430,369,388,383,375,248,256,254,263,298,280,292,264,326,370,374,348,369,391,362,378,382,460,492,642,636,667,645,605,518,513,486,437,421,399,389,374,526,537,538,576,666,562,627,600,596,518,507,407,412,364,323,318,276,148,165,193,243,263,262,250,227,167,117,107,98,73,50,46,42,36,34,102,107,111,112,112,61,52,40,35,38,33,28,30,29,28,28,30,34,37
fingersSpread,4,2,23,22,24,24,22,22,23,22,23,26,26,24,20,22,18,23,29,30,29,30,28,21,20,20,24,23,23,22,23,99,112,125,255,312,312,396,416,361,349,410,353,329,377,370,318,293,292,221,241,312,331,334,370,361,286,272,279,281,291,287,281,281,310,322,315,453,488,466,482,491,425,513,513,491,486,450,360,389,371,367,365,325,262,246,249,230,173,148,129,111,98,99,91,92,119,133,130,130,126,89,51,80,78,76,74,77,44,43,43,40,32,33,29,27,29,25,21,23,25,30,33,37,38,42,46,48,46
fingersSpread,4,3,25,24,20,21,20,22,22,22,23,22,21,25,26,25,25,24,20,22,22,21,23,25,24,25,26,28,60,64,64,79,166,164,170,172,170,96,118,147,158,161,159,141,115,101,90,92,107,99,93,93,91,72,67,73,92,116,125,141,140,130,111,121,150,162,204,301,502,549,673,690,694,661,643,525,517,502,389,358,347,315,325,302,286,273,257,142,117,90,68,68,60,58,58,53,51,49,40,39,32,34,29,29,27,29,25,27,27,27,29,30,28,28,28,24,24,26,27,32,36,36,40,40
fingersSpread,4,4,26,27,27,24,25,26,23,23,23,26,23,26,24,26,24,24,26,27,25,23,26,25,23,61,129,397,429,445,460,452,260,213,228,195,189,215,372,368,414,417,406,276,467,487,491,507,529,408,334,380,380,375,394,416,422,429,581,544,572,572,567,441,492,554,608,675,768,770,773,722,745,748,793,731,755,755,731,651,651,718,661,551,535,519,334,313,281,270,256,249,111,128,120,112,108,105,65,52,44,41,33,26,28,26,23,23,23,22,22,24
fingersSpread,4,5,26,24,27,26,24,24,26,24,27,29,29,28,27,24,22,21,20,24,23,22,24,23,21,24,29,29,29,30,30,24,23,22,23,26,28,29,33,37,36,37,37,38,34,38,45,72,73,82,90,136,127,132,178,187,157,213,217,193,206,386,374,383,392,397,300,294,289,306,344,329,425,610,675,734,792,815,712,657,598,544,446,444,414,365,283,306,241,243,233,229,146,154,155,162,159,148,126,107,54,51,46,40,31,28,26,26,27,28,27,26,24,24,24,23,23,24,28,26,31,31
fingersSpread,4,6,21,20,22,22,20,20,21,20,21,21,22,23,25,25,28,28,171,194,317,333,347,316,312,191,194,188,174,169,171,173,228,393,427,472,494,646,607,763,756,761,630,587,324,365,325,411,597,716,778,845,914,898,875,954,935,877,820,854,763,877,875,879,813,852,825,803,891,935,894,912,936,844,871,826,661,654,650,521,511,599,530,487,451,387,204,153,114,89,71,47,41,33,29,29,24,22,21,24,25,26,26,27,26,26,24,22,23,22,22,21,22,23,24,25,25,25,22,23,23,24,26,29,30,32,32,30,28,25,22,19,21,19,22,21,21
fingersSpread,4,7,23,23,24,24,23,26,27,28,29,28,22,22,20,26,25,25,24,24,18,23,24,25,25,54,55,109,134,199,260,343,436,485,515,502,596,605,591,604,622,534,510,499,664,675,661,647,650,500,502,514,626,650,617,658,645,541,592,649,674,734,734,673,646,590,581,623,610,601,573,549,481,499,430,386,279,220,158,143,134,117,106,56,49,39,34,33,26,26,28,25,27,30,32,29,30,29,25,22,25,29,30,31,34,36,32,30
fingersSpread,4,8,22,22,27,27,26,26,27,23,22,21,26,23,23,24,24,18,21,23,20,20,20,20,17,21,22,23,23,24,24,26,27,27,28,28,25,23,26,24,24,26,27,156,165,169,171,174,84,171,174,178,180,181,93,78,91,83,80,101,131,146,153,160,160,160,138,156,169,257,360,416,418,592,572,603,641,731,690,799,833,903,859,873,884,799,677,708,651,529,531,559,529,509,507,495,507,458,401,332,321,167,107,103,101,88,76,72,54,39,37,34,30,26,27,26,28,27,27,25,31,28,28,29,29,24,22,22,23,28,29,34,38,42,42,41,38,36,30,27
fingersSpread,4,9,21,21,23,24,24,24,25,22,21,21,21,19,21,22,21,24,24,23,21,22,22,24,27,29,28,26,24,49,62,126,129,136,134,169,152,249,335,385,387,381,399,400,489,525,546,583,601,561,614,748,715,748,778,831,725,765,812,761,648,631,599,520,652,637,690,727,724,621,626,585,560,597,612,629,653,635,533,502,481,589,570,553,525,504,272,175,149,127,115,75,51,43,35,32,34,29,27,27,24,23,23,23,25,24,23,22,22,21,22,21,21,22,21,22,22
waveOut,4,0,35,35,39,39,41,41,44,50,51,49,44,49,41,41,40,41,32,31,32,35,36,36,37,37,41,40,43,63,69,69,69,41,32,82,82,79,79,94,90,97,94,104,102,105,107,158,184,191,197,217,190,165,151,205,186,181,180,184,121,116,110,104,101,82,76,73,62,46,42,32,29,28,29,29,28,28,30,101,82,76,24,23,23,23,21,20,22,22,23,24,25,25,25,23,21,19,18,20
waveOut,4,1,23,23,26,26,24,25,27,25,25,26,24,24,23,23,22,22,23,24,23,21,26,23,26,29,29,28,33,33,32,35,38,40,41,44,45,45,45,52,56,68,72,75,76,82,71,73,74,76,69,82,91,96,96,98,94,83,78,75,74,67,68,68,65,83,84,86,84,83,198,275,282,284,287,217,103,78,66,53,45,44,42,39,103,122,150,155,159,129,113,68,56,43,41,33,31
waveOut,4,2,18,19,21,22,22,22,24,21,22,22,22,21,21,19,20,23,25,26,27,29,27,25,26,25,23,21,22,20,20,20,22,25,26,31,33,31,29,30,30,30,31,32,34,32,36,38,37,37,38,54,54,60,66,76,67,80,88,84,84,99,101,98,98,90,72,64,60,64,68,68,59,51,47,47,44,47,45,44,38,40,36,36,32,34,31,30,28,29,25,25,23,24,22,25,29,30,29,30,28,24,26,27,28,28,28,26,26,28,27,28,31,36,34,38,36,40,41,43,45,48,44,39
waveOut,4,3,19,20,23,24,23,24,23,21,21,19,19,20,20,20,22,23,23,24,27,26,26,29,29,27,28,26,24,26,24,23,24,23,24,23,25,27,27,25,26,26,26,26,27,28,28,30,30,30,29,30,42,54,58,63,64,61,58,66,73,74,87,83,87,82,81,81,99,99,106,111,211,257,264,292,301,256,209,219,219,208,192,189,162,95,194,327,522,671,739,874,877,899,908,928,807,824,735,746,689,726,691,661,494,484,395,328,288,260,169,120,100,82,61,38,35,32,30,29,27,26,25,24,23
waveOut,4,4,27,27,25,22,20,29,31,34,33,34,27,24,22,22,22,22,23,22,25,24,24,23,24,24,22,23,28,27,31,33,33,31,31,31,31,31,32,35,32,38,38,40,42,43,42,47,53,70,81,89,94,94,85,78,73,66,65,62,64,63,61,57,60,59,51,50,51,43,35,33,33,28,129,134,138,176,273,274,336,539,610,597,605,643,518,435,413,400,287,232,206,181,135,96,70,49,52,52,44,43,43,32,21,23,24,25
waveOut,4,5,20,21,26,25,26,24,25,21,23,21,22,22,22,21,26,25,23,22,23,24,24,27,28,27,26,26,25,25,29,27,30,31,33,35,40,44,46,47,47,47,47,47,73,80,95,98,113,103,103,96,100,85,81,75,78,83,91,103,110,107,95,88,83,221,438,478,535,547,517,352,297,193,319,397,572,689,733,695,657,609,582,531,524,517,401,221,194,140,111,89,59,48,37,30,27,24,25,26,28,31,32,29,26,37,48,49,51
waveOut,4,6,31,32,31,28,26,21,22,23,24,25,27,27,26,24,22,18,18,20,20,21,22,20,23,23,22,23,25,23,25,25,25,24,22,24,24,24,25,25,23,22,23,21,24,28,29,29,29,29,25,23,22,30,27,33,36,39,37,40,41,47,48,51,57,56,57,62,62,57,65,70,68,72,86,100,113,121,118,109,157,212,216,218,220,227,178,179,183,182,177,182,183,180,180,126,95,71,60,57,44,43,37,34,27,126,134,141,223,351,426,438,476,454,383,327,427,426,461,484,615,563,542,513,485,250,195,192,167,143,130,123,69,62,58,46,45,40,36,35,35,27,25,23,23,23,25,26,24,25,24,25,24,24
waveOut,4,7,20,21,25,24,25,25,23,20,24,22,21,21,22,22,23,23,25,25,22,22,24,24,25,26,26,26,26,26,26,26,31,32,31,33,34,33,32,32,30,27,22,23,25,24,26,33,35,37,42,43,43,40,40,36,35,30,36,39,39,39,46,47,60,61,71,81,79,71,76,69,63,67,77,77,77,72,71,58,53,52,50,45,43,37,33,97,102,105,108,109,60,49,40,56,119,344,367,378,386,400,245,216,208,192,126,109,96,65,50,44,30,28,28,30,29,30,33,32,31,33,34,32,32,32,29,27,29
waveOut,4,8,22,22,23,21,20,22,21,21,20,22,22,24,24,24,24,24,22,22,21,20,21,22,21,24,24,22,27,29,27,28,30,30,30,31,30,30,28,30,32,34,32,40,41,48,51,63,65,76,75,81,77,82,84,126,177,187,192,198,187,143,138,127,114,90,83,66,68,67,66,66,309,474,486,547,575,619,673,832,822,886,813,692,490,473,307,286,262,240,214,189,171,156,149,65,46,36,36,29,29,32,33,35,34,32,27,28,27,31,31,32,29,27
waveOut,4,9,26,27,25,24,21,25,24,25,28,29,24,26,26,21,19,20,20,20,21,21,20,22,23,24,24,27,22,22,21,24,23,25,25,27,27,26,26,28,27,25,27,27,27,33,33,34,35,38,34,37,47,53,60,71,84,84,82,81,93,95,92,96,103,94,85,85,84,87,80,76,109,177,183,184,185,169,94,66,66,67,60,56,53,42,35,33,28,24,23,23,26,26,209,216,228,233,234,112,99,67,47,44,32,30,30,26,25,23,22,18,22,22,28,28,29,26,26,23,24,23,23,24,25,26,29,31
waveIn,4,0,23,23,21,22,23,21,22,25,24,26,26,24,23,23,21,108,114,129,322,364,373,382,497,490,529,527,586,516,716,761,777,732,758,577,490,547,659,637,623,781,824,852,928,1018,1105,1163,1214,1332,1332,490,547,1352,1311,1307,1244,1119,1047,1009,1082,1119,1149,1224,1292,1131,1068,1084,962,723,707,657,408,320,277,225,163,124,89,69,59,47,40,34,34,30,29,30,26,22,22,21,21,24,25,28,29,30,28,29,27,25,28,28,26,28,28,26,25,27,25,25
waveIn,4,1,66,73,106,106,145,165,169,156,164,239,242,246,251,324,270,285,317,329,261,257,257,249,279,325,474,495,522,547,561,489,586,614,716,793,931,910,1015,1000,1123,1120,1253,1253,1303,1275,1260,1151,1209,1211,1213,1175,1185,1094,1053,942,938,931,966,947,911,846,761,587,436,436,421,392,340,322,179,144,127,84,78,68,50,39,37,36,31,31,27,25,22,26,26,27,24,26,23,26,28,27,26,27,25,23,23,25,23,23,23,26,27,27,30,31
waveIn,4,2,29,33,36,34,34,36,32,28,27,25,21,17,19,19,21,20,27,26,30,30,31,26,26,22,22,23,22,24,24,22,20,21,19,19,22,21,24,27,29,28,28,26,22,18,20,21,20,23,22,20,19,21,223,487,593,616,633,608,697,703,693,734,777,632,595,693,746,777,770,788,842,825,841,890,1020,1017,1057,1083,1135,1086,1092,1110,1166,1152,1175,1192,1149,1059,1047,951,965,1015,1062,1087,1062,967,848,710,489,506,399,365,332,302,160,108,87,68,62,46,40,35,34,29,27,23,24,24,24,24,26,29,27,26,25,27,24,24,25,26,22,23,24,24,23
waveIn,4,3,22,24,22,23,23,23,22,22,21,21,21,23,24,24,25,24,22,20,20,22,23,23,24,22,24,134,141,147,149,153,87,74,140,300,423,442,446,454,503,451,479,507,514,467,428,390,381,360,292,313,497,578,650,700,802,741,773,803,794,816,878,1004,1039,1096,1071,1074,967,956,944,902,940,907,829,787,763,587,497,441,300,233,209,154,120,77,64,54,45,40,29,31,31,29,31,30,28,28,26,24,24,27,31,32,32,33,31,29,28,28,31,35,38,37,37,38,34,30,32,33,28,27
waveIn,4,4,56,62,61,55,43,41,33,34,32,31,32,51,52,53,53,54,35,41,149,163,216,246,303,272,277,245,258,196,205,207,216,178,201,240,267,271,297,299,490,607,706,858,958,993,999,1101,1048,1085,1065,1120,1016,1014,1002,1025,1036,1054,1061,1048,982,882,858,779,683,614,591,497,490,414,429,314,273,245,217,162,189,194,188,183,146,89,64,51,43,37,32,29,27,27,24,24,24,24,22,26,26,27,29,29,28,30,32,28,30,30,29
waveIn,4,5,27,27,25,27,24,26,26,29,28,29,24,22,23,23,21,23,25,23,24,25,25,23,25,25,24,22,110,111,116,150,166,221,226,229,222,301,311,396,404,409,374,338,258,257,274,290,306,385,478,672,737,774,880,918,908,975,1098,1156,1189,1241,1256,1201,1185,1258,1223,1171,1215,1253,1153,1101,1125,1062,884,816,763,656,588,542,500,471,406,298,237,207,114,98,69,58,48,36,32,30,25,24,23,21,18,17,20,21,24,26,24,25,26,26,24,25,26,26,30,30,33,31,34,30,31
waveIn,4,6,24,22,24,25,25,22,24,24,23,23,25,24,23,28,27,27,28,30,26,27,27,26,27,27,27,25,27,24,24,23,22,20,19,17,19,20,21,23,23,24,24,25,154,286,312,369,380,363,353,430,450,468,488,478,429,365,340,299,284,261,341,443,505,508,557,625,687,723,825,912,900,926,985,1074,1078,1090,1126,1147,1147,1108,1102,1136,1079,1011,980,1093,925,849,710,684,336,320,313,287,205,208,174,163,159,148,118,68,62,41,34,29,27,27,30,29,28,30,28,28,28,32,29,28,26,25,23,25,26,24,25,25,23,24,24
waveIn,4,7,30,30,28,28,25,17,18,16,17,20,21,21,21,20,18,18,17,19,19,20,22,24,24,24,26,25,24,25,25,24,24,21,20,20,22,26,27,106,199,206,213,406,479,533,543,550,506,531,732,830,843,862,833,665,640,653,659,629,644,617,685,676,781,862,822,980,1080,1113,1146,1349,1274,1275,1275,1289,1155,1179,1146,1168,1093,1068,958,857,727,674,620,724,746,703,635,564,355,202,153,118,79,58,47,37,33,30,29,28,28,27,26,99,105,249,263,292,298,301,206,188,200,168,206,203,210,161,159,95,102,140,139,142
waveIn,4,8,23,24,24,24,25,25,26,25,29,26,26,24,25,24,27,26,26,27,27,26,28,27,26,24,23,21,21,19,19,20,18,20,20,22,22,24,22,22,19,22,22,21,23,23,19,23,24,26,26,28,27,26,23,24,21,24,24,23,25,26,19,20,22,106,422,608,784,942,1116,1188,1211,1171,1076,910,748,596,503,477,566,562,700,847,921,907,954,947,916,930,960,1051,1088,1066,1118,1152,1083,1048,1045,993,958,1058,1033,1015,1001,943,742,649,556,378,306,230,167,127,108,75,63,55,46,44,36,33,29,28,30,37,35,36,35,33,26,28,27,28,27,30,32,31,35,37
waveIn,4,9,19,18,18,19,22,22,23,22,23,23,25,25,25,24,24,26,26,112,402,458,478,501,493,321,309,345,368,374,372,420,506,509,513,540,511,437,399,424,421,402,385,449,603,729,866,947,1151,1239,1257,1231,1251,1231,1109,1041,1060,1005,891,896,902,846,971,946,909,886,862,635,482,417,326,140,104,74,59,53,43,38,33,32,32,31,33,36,36,33,35,31,28,25,26,24,23,28,30,29,31,32,28,23,22,22,23,26,27,31,28,28,26
doubleTap,4,0,138,153,232,224,208,228,283,297,365,381,385,350,299,303,407,407,412,415,359,208,265,315,367,679,700,677,681,704,588,672,791,779,747,654,560,633,703,707,677,669,463,475,506,521,520,495,350,255,217,190,167,141,130,81,71,62,59,50,35,30,28,27,26,25,26,25,23,22,23,21,21,19,18,20,19,20,22,23,22,28,28,28,28,29,25,24,22,23,22,24,28,28,27,26,23,18,22,24,26,26
doubleTap,4,1,26,29,29,25,25,25,25,24,25,25,29,28,28,28,29,58,140,151,155,157,160,104,151,158,232,496,659,661,668,686,616,671,729,724,699,636,436,539,785,822,941,947,873,757,711,527,474,402,142,108,91,69,51,37,37,32,28,25,25,24,21,21,20,20,21,23,23,27,29,28,32,34,33,33,32,29,26,29,27,27,30,33,28,27,27,23,19,19,20,21,22
doubleTap,4,2,21,20,23,24,22,22,21,17,18,18,22,23,25,26,27,24,24,23,22,22,24,23,27,105,118,121,127,128,159,162,167,170,194,312,486,614,723,731,748,750,740,647,643,581,462,325,464,702,716,714,704,608,291,256,220,212,211,193,101,86,67,47,39,35,33,32,28,27,19,21,20,22,24,26,24,24,27,26,26,25,27,23,50,52,54,54,55,32,29,24,24,31,32,31,32,31,25,25,24,23,24,21,22,21,21,22,23,21,22,21
doubleTap,4,3,22,24,23,26,23,24,22,23,19,20,19,20,20,22,22,23,23,24,22,22,26,24,30,31,31,28,31,30,34,92,160,168,177,184,180,174,461,627,641,650,644,489,522,527,519,525,520,332,443,748,797,814,790,727,431,327,278,246,213,123,81,65,54,48,39,37,34,30,34,34,31,30,32,25,25,30,33,30,30,29,25,23,24,23,30,29,28,28,31,26,26,27,25,24,23,21,20,23,21,22,22,23,23,24,25,25
doubleTap,4,4,25,26,27,26,25,26,25,24,24,21,23,21,21,22,23,22,25,26,25,24,25,119,140,152,160,164,121,97,83,237,393,611,690,773,802,767,710,735,671,609,606,559,571,594,599,576,523,375,300,258,229,178,116,80,65,61,46,35,28,25,24,25,25,26,28,30,29,28,28,61,46,35,28,29,29,31,32,32,32,33,28,28,28,25,25,28,28,29,27,25,23,27,28,28,28,29,25,22,21,21,21,21,21,22,23,25,25,25,25,23,20
doubleTap,4,5,28,26,27,28,29,26,27,26,23,21,24,24,26,26,26,23,22,21,24,26,79,121,159,200,225,220,249,323,490,553,610,622,627,602,551,490,459,395,195,337,513,579,597,605,534,377,266,215,188,154,110,65,58,54,52,36,34,27,22,22,22,19,22,23,24,27,28,27,28,27,25,23,28,28,29,31,31,26,23,26,25,24,27,27,23,25,25,22,24,23,25,23,25,25,29,27,30,31,30
doubleTap,4,6,25,24,25,24,23,19,23,23,23,26,25,22,23,22,21,24,24,23,22,24,21,21,19,22,18,18,21,23,22,23,23,20,19,18,19,31,149,164,168,174,248,321,467,629,689,682,721,701,653,597,586,479,374,214,463,519,529,540,536,343,236,206,172,119,69,56,54,45,37,27,25,27,26,24,26,26,26,27,26,25,26,25,26,26,28,26,28,26,27,25,24,20,21,18,16,16,20,20,22,22,28,30,30,32,33,28,23,27,25,25,26,28,25,26,24,23,22,22
doubleTap,4,7,21,21,21,19,20,20,20,20,20,16,22,22,21,24,27,24,24,26,23,20,24,22,22,22,23,20,20,23,24,22,21,24,23,24,28,61,139,244,424,592,719,717,715,646,531,475,486,451,428,387,418,642,658,659,658,549,214,155,130,120,99,70,50,45,45,39,34,29,29,26,28,28,31,28,27,25,24,21,24,24,26,25,27,26,26,24,24,21,20,22,25,29,29,28,27,24,20,20,22,22,24,25,24,23,22,21,21,20,23,24,25,27,27,25,24,22
doubleTap,4,8,23,23,21,22,25,27,27,29,27,26,24,26,26,28,27,30,28,27,32,177,187,201,204,204,112,298,327,374,393,395,282,245,228,207,211,209,204,129,105,191,482,584,637,642,635,481,365,280,270,229,162,120,64,57,52,39,32,29,28,25,24,26,27,28,24,23,28,28,32,38,42,41,43,40,40,39,37,34,33,26,24,23,25,26,27,26,27,24,25,25,26,29,28,28,29,29,25,27,28,28,29,30,31,33,33,33,33
doubleTap,4,9,25,24,23,22,20,21,24,27,29,29,29,27,23,27,25,27,34,238,405,422,456,487,438,302,377,396,430,569,750,718,693,675,649,513,521,520,495,368,280,384,589,619,634,619,558,336,273,233,205,131,96,72,52,46,37,29,26,26,30,30,35,33,31,26,27,22,21,25,26,28,26,27,22,27,26,26,28,29,23,22,23,19,22,24,27,26,25,27,25,22,22,23,20,22,25,26,28,27