
fist,1,0,23,23,24,25,28,26,24,24,22,21,22,22,22,23,19,20,21,20,19,22,22,20,22,24,23,22,23,21,20,17,19,18,19,22,22,25,25,24,22,22,20,19,22,24,25,88,237,493,669,740,768,819,805,737,697,691,650,576,510,510,587,576,547,529,499,372,302,275,267,258,270,345,376,488,503,503,491,468,365,338,322,247,272,260,259,255,302,266,271,341,338,310,304,332,268,301,361,366,346,386,365,333,348,351,337,341,327,292,279,267,508,627,717,910,991,953,913,881,684,554,452,372,379,402,395,418,427,347,344,366,328,300,304,283,264,245,239
fist,1,1,176,181,185,187,231,213,256,323,353,343,351,317,260,220,202,203,203,175,187,205,197,262,263,252,225,228,139,156,169,170,152,189,205,229,255,262,246,211,171,125,269,392,492,538,675,668,686,626,604,456,415,339,361,364,375,373,313,280,238,234,211,240,270,278,260,274,268,231,244,256,238,190,182,224,203,218,220,224,166,193,232,241,241,229,203,120,89,81,85,116,177,292,336,340,331,316,223,164,154,164,215,243,256,356,389,387,392,475,431,406,416,425,347,364,395,441,415,395,422,439,370,373,380,371,343,339,365,422,368,378,376,356,275,351,329,381,376,403,400,500,557,588,641,635,555,512,478,403,408,441,383,391,475,472,445,446,438,346,293,281,274,314,273,262,294
fist,1,2,246,240,240,124,106,136,160,165,164,165,124,72,57,50,162,169,172,183,186,106,219,225,238,239,239,139,126,80,68,58,40,43,39,47,69,69,105,109,146,167,231,228,259,346,416,396,408,430,361,460,488,590,584,589,478,476,455,448,536,538,514,493,495,405,386,394,313,299,338,355,396,399,444,418,433,385,467,457,450,426,434,346,306,354,357,364,364,372,419,427,417,406,408,305,287,273,260,223,211,178,182,168,162,149,152,141,173,170,201,273,297,367,393,380,329,308,205,198,219,229,288,306,333,358,363,326,325,260,210,215,266,288,292,290,278,242,221,217,215,219,259,227,233,233,236,220,227,249,259
fist,1,3,216,218,144,90,76,68,62,213,224,234,241,243,131,111,94,81,111,134,243,244,254,250,241,199,263,276,328,341,338,338,330,319,339,445,424,430,407,387,250,244,249,280,332,346,338,332,369,334,321,344,374,321,332,336,358,331,377,363,362,325,342,418,448,440,485,500,432,503,537,512,500,482,375,318,316,306,316,375,405,423,423,394,324,278,210,257,282,306,303,292,210,189,222,230,248,259,239,179,183,185,223,243,273,272,277,288,273,239,276,272,229,226,220,183,174,158,168,180,152,180,179,192,175,175,195,197,179,186,185,123,116,109
fist,1,4,146,101,64,52,52,43,39,39,36,26,38,84,150,157,161,163,147,86,91,189,194,217,229,226,167,183,171,181,244,248,246,246,264,273,329,363,368,363,397,401,394,417,424,372,336,346,337,343,374,374,341,332,377,441,670,742,752,746,688,459,373,402,345,361,384,379,314,326,314,306,277,283,333,355,339,349,340,274,233,252,272,285,286,294,285,235,236,255,249,226,233,217,204,202,194,156,141,105,87,106,196,323,358,387,464,442,363,330,311,206,191,268,280,265,271,360,321,316,336,310,241,238,233,237,236,196,175,262,343,359,362,363
fist,1,5,101,104,99,56,49,37,32,33,33,36,34,85,86,90,91,94,52,49,42,41,41,38,39,38,33,36,40,42,47,184,325,362,451,455,439,380,365,268,284,269,250,223,228,203,205,185,206,204,234,288,301,356,364,401,415,428,388,483,463,472,519,518,447,458,424,379,375,355,317,323,337,330,316,340,342,294,389,459,466,470,506,441,382,379,400,351,388,468,464,440,450,469,484,488,477,462,413,286,254,232,323,318,342,342,337,261,278,307,294,303,301,416,376,383,402,462,375,369,381,351,258,212,194,139,169,201,203,213,223,280,264,258,251,245,177,152,200,196,190,161,224,182,179,179,179,117,114,112,165,165,185,185,184,136,188,188,224,182,159
fist,1,6,83,84,45,41,31,31,31,32,36,34,33,39,48,54,58,61,57,53,70,103,124,151,163,166,156,143,160,164,174,179,192,235,350,378,420,430,404,326,306,248,273,322,351,348,361,333,336,385,384,382,423,386,313,342,333,289,333,365,367,375,393,370,332,296,340,371,366,468,464,473,465,491,397,455,403,405,366,388,369,418,391,400,449,414,384,368,342,210,188,124,79,103,107,101,99,199,203,202,203,208,126,138,133,195,198,260,268,287,282,284,245,229,209,184,177,211,201,203,202,213,157,148,140,181,191,189,223,224,174,143,140,110,107,102,100,97
fist,1,7,126,124,114,82,79,84,111,119,115,118,117,93,87,73,65,71,72,88,90,90,82,99,89,126,153,180,196,199,187,178,199,192,193,239,232,277,283,305,283,420,489,514,530,538,502,446,453,425,426,357,313,242,249,250,243,276,337,351,332,371,346,310,287,330,308,338,357,369,349,372,382,356,337,328,287,240,263,264,266,263,282,265,271,281,289,250,251,262,232,220,214,220,235,248,273,343,380,376,369,400,339,279,258,252,146,128,117,89,62,57,55,49,43,43,42,41,29,32,31,29,34,39,43,93,130,136,159,246,262,287,306,339,299,286,255,243,199,292,293,296,291,277,163,163,175,167,179,201,181,151,174,169,147,152,152,127,113,145
fist,1,8,38,38,45,46,151,160,168,172,181,142,141,137,138,131,131,125,148,161,177,245,281,291,302,329,326,332,365,386,395,383,371,345,315,334,313,329,330,378,328,363,454,522,500,533,507,409,347,350,322,376,439,447,434,486,447,456,430,446,428,516,464,482,543,525,443,426,386,256,179,147,229,241,232,234,234,166,239,244,242,256,243,143,183,266,257,262,264,242,187,174,175,202,214,257,284,297,285,268,240,233,232,223,220,211,180,150,167,173,171,169,172,150,219,197,200,208,214,168,152,162
fist,1,9,35,31,28,28,28,27,25,26,26,24,23,23,22,22,22,22,22,25,35,39,40,42,45,39,38,40,42,38,42,68,126,132,140,139,134,106,99,93,101,107,92,96,134,153,204,235,244,266,284,290,311,347,341,320,309,275,273,293,370,362,364,364,330,319,336,339,320,333,291,263,247,240,319,388,382,410,458,400,364,441,458,415,439,436,362,324,325,355,339,335,343,340,271,221,300,284,285,292,303,236,258,234,216,199,179,107,170,164,165,173,179,112,105,141,145,217,217,221,220,210,164,176,176,172,192,165,195,240,238,226,227,200,233,225,238,238,233,159,177,160,154,151,170,179,194,194,213,179,143,149,153,124,144
fingersSpread,1,0,50,51,52,31,30,28,25,23,21,20,19,21,21,20,19,18,19,19,117,195,264,284,314,326,313,282,276,288,369,383,393,417,479,479,523,531,518,451,556,522,534,619,755,683,774,868,876,880,880,829,776,766,742,831,807,944,907,879,827,925,729,753,721,661,509,488,420,327,256,185,169,116,88,65,48,41,35,30,25,26,26,23,21,20,18,19,20,24,25,26,26,27,25,25,25,23,23,22,21,19,21
fingersSpread,1,1,247,284,299,331,334,327,312,332,421,515,551,672,701,680,647,748,710,750,968,1018,1039,1064,1041,906,908,948,966,975,996,982,873,985,1045,963,1031,1084,920,930,947,846,831,866,769,783,746,678,601,551,478,474,375,323,281,221,170,100,94,66,55,44,35,30,22,22,21,19,25,25,24,25,27,21,21,21,21,20,20,20,22,20,20,22,22,20,20,20,19,19,22,21,21,20,21,19,20,22,22,23,23,23,23,21,20,19,22,20,22,22,22,20,23,21,20,19,19,18,18,18,20,19,19,19,20,17,20,20,20,18,19,20,19,20,22,22,21,22,23,23,23,24,22,22,23,24,22,22,20,20,18,18,19,20,18
fingersSpread,1,2,20,22,20,19,20,20,19,21,33,34,34,34,35,32,82,86,89,90,158,273,290,292,327,327,274,261,284,247,227,217,219,195,259,275,297,323,330,313,312,359,368,404,444,495,471,470,454,608,587,665,675,684,575,664,624,655,723,731,676,716,687,676,661,666,665,728,752,764,755,711,790,745,753,740,719,620,701,672,726,714,645,495,435,346,359,350,337,328,243,150,116,88,75,59,44,38,33,30,28,25,24,25,24,22,23,21,28,28,28,29,28,23,25
fingersSpread,1,3,23,22,21,23,23,22,24,27,26,25,24,25,23,22,23,24,22,26,32,135,201,220,233,235,207,147,232,288,317,323,328,288,222,217,234,253,237,243,261,261,250,288,344,337,413,426,410,434,437,437,520,520,469,523,566,490,494,495,479,397,412,499,529,546,521,614,547,563,514,549,588,641,691,723,752,662,674,660,654,643,634,621,571,600,568,590,530,519,461,573,526,529,504,464,234,204,148,122,99,68,62,39,35,29,27,25,24,23,24,24,24,24,24,24,25,25,26,26,25,26,27,26,28,27,24
fingersSpread,1,4,21,20,22,22,22,23,21,23,23,23,23,24,22,29,150,174,261,277,350,323,316,254,254,141,149,165,174,182,185,224,321,343,331,378,356,306,398,401,403,432,448,357,366,353,373,479,492,612,760,772,777,778,788,658,741,755,792,716,722,726,660,693,772,850,751,764,742,742,695,728,797,831,827,877,863,792,711,611,470,446,380,538,543,541,535,522,318,299,227,175,153,147,86,58,51,37,33,27,26,24,21,20,18,22,23,26,25,26,24,23,25,25,23,24,27,20,24,25,25,24,25,22,23,22,22,20
fingersSpread,1,5,67,117,193,236,245,280,280,242,236,231,178,152,138,92,145,157,186,231,279,261,325,346,361,375,471,450,430,506,525,551,570,621,608,657,695,707,717,706,688,773,842,893,909,897,889,841,812,817,951,961,947,897,950,903,768,830,865,799,765,893,865,873,920,890,728,744,753,656,584,579,452,308,263,211,194,188,168,116,104,81,67,82,79,80,81,76,41,36,32,29,30,27,24,24,25,24,24,26,26,24,25,26,25,24,23,21,18,18,18,18,19,23,22
fingersSpread,1,6,20,22,22,20,18,21,19,22,23,24,22,23,22,21,22,27,34,116,156,162,233,266,268,261,279,236,241,221,209,181,183,133,132,192,210,308,326,339,313,387,332,326,342,357,276,301,318,323,379,397,400,378,397,411,451,451,471,460,423,434,456,497,557,606,620,610,600,609,580,556,534,559,594,592,613,619,608,592,571,525,581,604,623,621,623,580,581,489,495,489,555,495,481,546,549,604,602,578,501,473,249,194,170,121,94,68,47,43,32,29,24,22,23,21,21,23,22,20,21,21,20,21,23,23,26,26,27,25,26,25,26,24,24,24,23,22,23
fingersSpread,1,7,20,26,76,104,110,129,133,120,101,95,68,58,43,45,100,101,105,109,107,130,209,214,262,308,290,248,257,222,162,159,162,281,293,299,303,342,271,258,270,302,364,415,430,423,413,426,384,370,396,475,428,574,673,716,707,702,591,612,551,577,620,905,857,939,946,959,758,783,751,780,786,780,719,672,662,633,673,717,802,765,756,650,674,560,584,585,592,686,751,702,663,656,468,352,353,350,344,317,263,162,150,133,122,113,112,63,56,49,41,353,350,344,35,29,26,22,23,24,25,25,25,22,21,20,22,21,21,22,22,19,21,21,22,21,23,23,22,22,21,18,18,17,17
fingersSpread,1,8,18,18,17,18,17,19,19,19,19,19,20,21,22,23,22,21,24,21,70,179,217,223,226,222,166,193,196,204,215,207,202,195,203,186,248,250,277,285,298,285,256,244,256,274,241,247,242,211,188,200,229,231,235,262,277,323,321,377,404,438,403,445,445,426,440,429,398,412,434,431,461,469,602,613,619,638,702,584,555,577,579,633,675,723,739,777,740,718,720,710,643,649,701,669,666,715,649,554,539,523,473,554,561,572,555,534,526,562,545,546,542,448,361,324,219,170,95,78,66,44,34,28,26,23,24,23,24,22,23,22,25,25,25,23,23,18,17,19,19,21,21,22,21,22,21,20,20,19,16,18
fingersSpread,1,9,20,31,59,90,99,161,163,161,162,160,112,137,136,118,117,104,76,119,159,160,187,229,233,230,256,241,207,241,233,222,325,323,327,347,353,285,353,345,329,345,340,354,367,413,502,528,505,521,566,510,519,518,513,545,587,643,690,693,766,740,681,661,668,541,510,551,633,625,600,629,675,564,591,585,551,459,517,491,582,617,612,679,705,672,694,696,592,613,601,534,550,543,511,546,554,531,566,560,459,445,429,389,294,267,248,211,109,73,65,58,48,39,31,22,21,21,20,20,20,19,22,21,21,21,23,22,22,23,25,23,23,22,22,22,21,20,20,20,20,21,21
waveOut,1,0,20,18,20,21,20,19,20,22,21,26,28,32,34,36,34,37,39,37,39,42,41,37,42,44,41,51,57,57,63,80,93,99,116,128,128,133,131,145,148,180,221,229,221,230,230,188,230,228,218,197,208,167,174,196,198,205,200,207,192,201,206,203,190,179,166,146,158,168,183,180,167,160,149,128,134,142,137,134,148,137,135,128,124,96,92,103,163,190,202,205,201,246,293,291,292,288,215,114,94,81,69,59,42,37,35,36,34,29,26,26,26,26,24,22,21,23,24,24,24,22,20,20,20,20,21,20
waveOut,1,1,39,32,30,28,35,33,39,71,83,112,177,184,185,209,198,174,172,165,132,144,116,119,133,166,163,169,174,167,164,170,173,183,210,200,202,199,204,186,195,200,232,223,241,267,278,255,260,262,251,244,256,276,322,300,306,303,312,254,284,280,281,259,248,221,221,200,189,187,213,198,205,193,211,194,199,196,198,170,143,139,192,197,285,292,379,360,453,536,546,526,538,509,379,409,392,423,369,370,321,309,354,392,390,422,398,305,244,223,140,151,133,151,157,155,139,119,82,69,62
waveOut,1,2,20,18,20,21,20,22,23,21,25,28,33,34,40,40,41,40,40,37,38,44,46,45,50,48,44,61,63,89,105,110,106,120,130,144,150,156,164,175,207,216,234,229,216,179,183,186,194,191,210,210,202,224,226,215,220,212,184,190,194,178,179,187,190,187,189,192,221,214,200,195,181,128,121,131,119,115,97,135,184,378,390,414,404,385,238,243,220,213,219,198,225,209,236,220,202,167,164,131,179,183,179,192,190,149,140,104,73,90,84,83,82,81,42,37,97,98,127,132,136,103,102,62,50,38
waveOut,1,3,25,25,24,24,22,24,22,24,21,21,20,22,25,25,25,27,26,25,30,31,31,32,34,35,37,39,44,44,44,47,53,57,63,85,86,102,264,287,297,310,316,223,202,206,187,176,168,166,140,148,158,144,137,151,145,161,166,212,233,260,241,237,196,165,125,128,177,209,211,226,254,228,213,224,215,190,185,200,184,268,412,579,634,645,627,654,742,718,728,737,724,531,554,649,641,560,535,592,607,616,640,673,572,437,422,385,322,336,304,271,232,190,185,177,176,163,155,100,57,113,146,147
waveOut,1,4,21,21,20,20,20,24,27,27,25,25,22,19,22,23,26,27,30,28,30,29,30,30,32,31,31,34,35,40,42,47,48,49,48,52,50,50,49,53,52,55,51,52,47,47,46,52,52,51,55,56,57,62,68,72,75,77,92,93,104,105,109,104,107,106,105,142,148,154,148,154,127,122,119,137,148,137,140,137,139,140,164,158,169,180,233,299,315,313,304,266,180,158,159,154,165,163,165,176,171,145,138,136,167,207,248,264,352,406,529,560,590,626,589,486,468,433,397,429,474,454,470,413,400,364,351,323,372,338,300,291,278,159,183,230,228,230,226,199,119,116,107,122,116,127,121,123,107,104,77,106,99,96
waveOut,1,5,24,23,22,22,22,24,29,32,38,37,35,39,39,38,54,59,56,63,62,55,57,59,57,66,71,72,76,77,70,65,72,78,79,90,92,91,127,153,154,165,177,162,157,160,158,157,152,140,156,151,142,157,163,147,148,150,130,117,116,122,119,126,140,145,137,143,137,124,113,174,178,182,184,227,187,174,168,173,116,116,116,116,123,300,308,316,360,369,378,418,511,578,600,559,544,492,422,386,344,363,359,312,309,330,282,262,270,263,229,214,173,139,127,120,117,77,68,54,48,43,28,27,26,27,26,25,24,23
waveOut,1,6,21,22,22,20,21,22,24,25,23,25,25,25,25,32,40,41,41,45,43,34,33,32,26,23,28,29,32,32,32,29,32,36,37,40,40,37,33,38,36,40,53,54,59,66,65,62,68,65,59,64,77,86,92,118,120,122,119,117,101,97,93,94,99,100,108,112,112,109,111,118,144,166,185,190,201,236,298,338,348,347,319,269,206,204,189,177,148,172,160,202,218,231,217,216,190,180,158,162,144,131,148,177,223,226,233,335,358,329,333,338,236,210,208,203,183,194,159,150,165,165,155,152,151,127,125,104,101,99,95,91,44,42,69,72,72,71,72
waveOut,1,7,18,18,18,18,21,21,21,21,21,21,21,22,23,24,24,25,25,26,26,26,28,29,29,30,31,28,27,27,26,28,30,32,30,30,27,30,33,36,39,45,49,56,60,61,61,58,63,67,65,71,76,71,80,90,90,89,92,81,79,82,80,83,97,101,109,127,142,158,155,156,164,155,135,137,142,117,118,119,114,102,103,101,108,110,105,118,117,123,127,133,129,125,115,125,125,120,124,118,105,104,104,102,184,198,205,215,221,178,185,174,162,149,196,279,288,294,299,261,141,113,98,171,189,188,191,188,113,67,68,61,57,51,51,48,44,44,41
waveOut,1,8,30,31,32,32,30,37,36,35,36,38,31,29,30,34,33,34,37,37,33,46,48,52,56,64,67,77,78,88,91,85,81,83,81,77,80,75,89,93,111,149,165,172,184,181,163,161,149,152,144,133,138,171,159,172,184,172,137,150,152,138,147,158,141,132,130,117,111,118,116,118,116,112,98,86,79,82,73,78,77,73,64,58,46,39,41,46,49,51,53,119,219,348,438,510,538,511,476,403,349,335,365,318,316,289,322,323,320,320,337,249,193,184,174,99,99,85,81,66,54,46,41,40
waveOut,1,9,22,22,21,19,20,18,19,21,24,25,27,27,26,25,24,24,22,22,22,22,20,23,20,21,26,34,35,36,78,79,78,79,81,46,44,43,39,39,37,36,34,36,35,33,34,34,36,40,41,39,40,44,50,51,54,58,62,149,153,160,163,164,93,104,102,126,132,130,119,142,131,144,150,157,140,134,119,120,114,115,110,128,144,142,148,156,139,115,124,107,105,103,106,105,147,143,143,143,141,108,103,115,158,160,147,252,301,294,296,323,293,275,305,349,479,486,468,455,441,316,278,275,264,254,213,215,213,238,246,246,243,240,198,144,106,87,139,139,140,144,132
waveIn,1,0,41,39,39,43,45,45,53,60,73,135,315,488,665,780,890,894,978,997,1049,1102,1148,1103,1118,1032,1019,1064,1085,1018,1140,1121,1081,1095,1163,1101,1030,1056,1067,1019,1038,1063,1047,952,889,856,830,807,918,1025,1131,1213,1209,1189,1124,1012,903,879,772,756,650,623,578,552,470,448,426,409,510,510,505,495,456,279,242,226,186,122,112,106,101,94,92,42,38,34,33,33,34,32,33,32,30,27,27,77,79,80,81,82,75,78,79,79,81,72,95,95,97,95,78,42,50,81,82
waveIn,1,1,24,26,26,25,25,35,40,249,302,466,531,655,653,669,610,784,791,920,938,1058,1003,1018,1002,1096,1057,1132,1220,1276,1221,1265,1198,1144,1128,1125,1077,1118,1061,945,1026,1003,933,960,956,886,885,929,933,1018,963,979,931,835,734,734,654,664,733,775,797,867,781,795,768,856,816,853,877,1023,925,1000,1003,968,781,882,801,784,715,661,478,314,256,208,188,170,160,87,108,94,91,92,85,48,43,39,31,32,27,29,26,26,23,27,27,29,31,34,31,30,29,26,23,23,23,23,22,21,23
waveIn,1,2,28,29,86,88,89,89,91,42,37,33,32,29,24,24,23,21,20,22,23,40,52,101,104,108,105,110,146,322,350,363,531,576,580,635,706,674,747,784,840,794,809,870,1002,1095,1230,1267,1267,1174,1104,1144,1132,1081,1094,1089,1049,1090,1120,1155,1193,1184,1202,1179,1132,1088,979,881,897,864,811,785,787,918,952,997,998,956,788,719,589,619,579,585,569,580,509,493,345,271,201,150,126,90,67,55,46,43,32,28,28,27,26,24,24,22,25,26,28,26,25,29,29,29,31,31,24,23,23,25,26,27,33,34,34,32,32,29,29
waveIn,1,3,24,26,37,50,53,55,68,69,61,64,90,154,177,179,180,213,193,352,410,422,432,508,491,559,660,731,782,871,903,871,858,847,802,818,915,983,1011,1013,1012,943,958,945,959,957,986,925,962,963,1007,979,976,1013,999,1001,1061,1051,926,950,895,847,897,937,931,939,989,992,1005,942,888,800,727,674,636,569,548,499,431,475,477,511,476,460,413,476,360,348,340,320,177,150,126,107,88,89,89,88,88,124,144,144,153,156,131,85,86,95,95,95,92,84,52,85,88,90,92,100,83,80,117,116,110,100,99,46,43,42,35
waveIn,1,4,23,22,24,25,26,26,43,48,50,52,54,43,48,53,62,61,61,62,64,57,57,96,189,194,221,258,409,479,494,498,492,374,247,224,239,381,395,409,470,485,405,471,495,510,602,715,768,876,904,867,861,923,914,935,935,405,471,947,983,911,869,863,868,903,931,937,911,970,888,816,822,836,822,851,893,895,911,869,859,912,898,917,940,918,939,977,1024,1057,1100,1086,1084,1013,1021,1009,948,889,905,781,677,594,528,362,321,237,241,218,209,430,436,443,453,443,229,208,174,120,108,69,86,83,80,89,114,101,96,96,96,64,58,57,51,82,84,83,83,84,40,36,36,33,33,84,86,87,90,90,46,91,94,94
waveIn,1,5,23,23,23,22,23,24,30,32,34,34,36,32,33,33,35,31,38,52,112,157,173,244,293,287,281,384,541,703,748,766,809,828,708,667,703,679,572,695,767,776,760,744,645,653,716,699,799,836,794,718,772,720,718,781,822,883,883,931,1008,997,1014,1056,1013,968,970,884,940,954,925,906,904,739,690,691,684,732,804,772,748,865,820,855,935,930,881,891,834,746,672,536,417,376,370,370,360,355,270,245,234,233,230,168,142,117,108,92,80,69,44,39,35,31,29,28,24,25,25,26,25,29,28,28,29,30,27,27,27,25,24,23,26,28,28,28,28,26,27,28
waveIn,1,6,24,25,24,23,23,23,23,24,26,86,177,219,222,231,225,172,131,128,136,182,224,452,481,496,540,537,497,520,524,484,497,412,355,332,354,396,489,596,657,676,763,763,735,813,852,776,781,769,754,718,815,828,887,881,896,851,924,879,850,956,1036,983,1084,1166,1107,1129,1108,1056,982,997,875,958,945,899,907,889,828,838,866,804,780,704,632,637,628,722,742,803,767,736,678,677,582,535,515,426,307,250,243,221,215,210,184,158,126,117,103,99,62,49,45,35,30,19,20,20,20,25,28,27,27,28,26,24,25,26,25,33,37,36,37,37,31,26,27,24,29,27,30,29,31,26,28,25,25,25,25,24,23,78,81,83
waveIn,1,7,34,33,35,31,47,48,50,50,55,45,48,49,49,46,44,42,40,39,47,67,100,149,155,158,164,223,279,293,305,312,292,237,233,219,237,257,329,378,575,585,639,783,856,774,786,804,666,628,682,685,627,689,706,806,853,867,862,881,750,897,918,918,884,907,740,728,828,851,856,877,910,810,811,804,840,831,857,868,848,778,758,672,730,811,792,827,847,695,584,560,428,464,459,432,427,405,276,273,224,186,165,123,102,87,83,78,76,38,36,28,26,25,24,25,24,23,22,23,21,21,25,25,27,28,29,28,29,26,23,23,26,25,26,27,30,28,28,29,28,24,25,28,26,32,31,31,31,32,27
waveIn,1,8,28,46,53,55,80,124,153,160,184,197,181,188,185,184,190,189,160,300,395,460,555,583,614,601,561,558,626,562,712,803,808,830,847,773,740,690,690,839,896,936,1011,969,861,820,862,888,961,960,901,811,776,717,682,735,867,849,866,962,956,884,898,885,892,888,899,970,961,871,880,884,806,806,843,837,758,738,719,717,765,789,799,773,706,721,669,601,576,564,372,327,302,326,326,299,281,195,138,149,127,124,118,113,60,49,40,36,38,34,32,30,31,27,25,25,29,28,32,31,31,27,29,25,27,28,28,27,27,26,24,26,24,23,23,27,26,27,94,98,99,100,101,55,48,45,41,38,24,22,21
waveIn,1,9,24,25,25,23,25,26,25,26,26,23,24,26,26,32,85,118,122,148,148,131,126,136,110,127,220,214,251,261,278,217,244,217,208,175,166,133,191,191,198,203,212,257,323,402,426,450,517,606,708,722,778,814,772,676,693,625,578,677,727,756,766,720,708,674,668,746,831,816,871,896,851,911,924,928,939,1003,968,917,908,913,938,881,869,893,903,891,933,1023,1014,1031,1020,1043,1006,1000,1016,1055,1027,981,981,936,841,819,849,845,828,847,846,790,701,727,664,646,651,636,477,421,249,169,106,115,139,167,165,166,148,118,57,47,35,32,31,29,25,29,26,25,26,26,22,21,20,20,20,23,23,28,29,29,27,28,25,28,29,33,34,33,31,31,34,33,37,35,37,29,28,29
doubleTap,1,0,20,17,19,19,19,21,22,22,24,26,24,26,36,36,35,36,73,354,500,672,717,760,687,747,749,726,703,705,695,726,799,793,844,817,788,726,739,684,575,373,309,303,277,251,233,227,147,117,112,142,144,152,186,194,175,173,176,136,128,126,129,112,121,119,118,112,106,104,102,102,102,102,101,122,128,128
doubleTap,1,1,23,22,22,22,21,22,21,23,41,155,335,402,419,423,406,311,313,386,393,394,455,672,719,834,855,834,741,713,614,584,562,418,300,184,184,177,177,171,176,176,164,184,188,193,183,173,134,232,224,224,222,237,166,164,156,175,156
doubleTap,1,2,22,23,24,23,26,38,93,388,550,604,607,626,560,543,614,628,642,619,677,773,863,883,874,755,630,583,553,547,564,484,371,303,299,276,245,255,264,253,222,203,185,185,180,176,220,197,205,209,204,168,160,129,181,186,173,171,167,189,190,191,193,196,146
doubleTap,1,3,114,119,90,87,82,55,46,33,32,30,74,92,97,98,99,73,49,47,281,488,653,677,684,645,578,567,578,596,595,606,538,565,561,591,629,712,675,666,632,520,255,225,201,200,184,220,205,194,183,193,162,161,163,138,140,149,180,181,186,189,190,162,179,202,182,154,168,190,168,171,167,161,133,132,142,145,151,197,200,197,195,202,156,168,164,201,178,161,136,129
doubleTap,1,4,29,29,25,21,21,61,190,434,612,645,652,640,601,511,518,521,508,453,589,615,658,684,678,624,689,663,641,610,471,244,160,185,203,194,187,206,164,148,144,149,150,142,129,180,198,183,183,178,145,114,132,137,168,161,160,141,141,161,170,171,173,191,144,123,117,164,156,156,153,160,136,162,164,165,196,176,137,135
doubleTap,1,5,35,36,26,28,81,103,125,128,131,108,88,54,45,35,29,65,166,442,496,551,561,565,433,399,408,403,374,334,398,607,751,774,795,801,749,655,653,637,577,394,293,222,208,223,207,214,240,216,183,224,217,202,203,211,163,168,171,170,159,134,150,150,145,146,146,205,201,206,215,228,183,166,175,163,169,131,132,124,149,137,143,144,136,110,137
doubleTap,1,6,83,86,89,89,91,49,39,32,33,26,25,24,24,21,23,23,37,77,114,136,161,183,188,213,371,454,495,529,518,421,468,612,603,658,674,675,645,671,625,608,503,309,188,152,201,200,195,190,209,170,176,171,184,160,180,174,171,180,179,152,156,165,153,178,170,166,184,199,181,189,194,175,143,141,138,130,160,163,159,143,150,137,159,159,160
doubleTap,1,7,22,21,20,23,65,230,306,345,356,354,304,254,279,330,345,326,309,378,476,546,557,564,534,525,497,507,517,481,364,282,237,214,201,167,167,181,167,151,151,187,168,159,138,139,157,161,170,171,196,152,204,204,205,201,193,147,139,157,148,155,140,167,152,174,167,169,156,206,177,207,208,229,194,191,163,172,144,143,143,148,129,113
doubleTap,1,8,83,85,81,41,37,110,440,501,511,515,510,388,381,463,475,493,423,373,338,613,667,663,660,625,446,420,445,449,448,370,264,219,221,203,142,151,149,132,156,158,146,143,183,174,176,198,198,138,150,151,133,136,138,146,141,125,123,124,120,122,126,131,144,112,135,146,154,138,135,135,126,135,136
doubleTap,1,9,21,22,22,23,21,21,23,24,22,23,22,22,21,80,222,349,367,379,380,337,244,328,328,326,315,449,519,589,593,603,524,499,533,535,529,502,388,173,167,137,128,121,128,121,123,125,127,115,114,135,135,133,136,128,120,122,125,125,98,78,97,96,125,127,125,112,130,101,99,117,140,128,128,126,110,85,117,119,123,120,109,64,54,95
fist,2,0
fist,2,1
fist,2,0,42,25,25,25,24,25,24,23,23,26,23,23,23,21,18,20,22,21,21,21,21,20,22,23,23,23,24,25,24,24,22,21,22,21,20,22,22,21,22,24,23,22,21,22,22,21,23,24,24,22,23,23,23,23,23,24,24,21,20,20,20,23,24,33,36,38,39,41,34,33,56,59,61,73,74,65,75,84,80,95,150,158,169,192,197,189,226,311,327,373,368,382,402,439,417,474,514,493,501,519,513,501,518,558,537,530,501,488,450,583,580,571,537,498,345,296,287,288,323,362,435,445,461,447,453,435,419,395,361,282,190,202,192,177,173,147,99,85,76,69,52,47,61,59,59,55,55,36,34,31,30,29,24,29,43,45,45,44,43,30,28,30,35,36,38,41,42,44,45,43,42,41,39,32,33,35,34,31,32,37,33,34,33,33,27,29,28,28,29,29,27,26,25,26,25
fist,2,1,22,21,21,23,25,22,24,26,26,26,26,25,25,24,24,25,26,30,45,45,44,46,69,91,101,103,103,90,64,60,63,91,113,126,136,143,166,175,193,206,247,279,279,283,304,384,385,393,418,500,515,523,537,542,564,602,611,683,686,628,603,609,780,797,892,864,872,709,804,687,689,746,775,654,683,705,612,533,505,557,496,477,431,449,304,286,298,283,242,216,191,140,127,123,125,111,109,109,82,56,52,49,40,39,37,35,37,40,42,38,38,37,43,43,44,43,42,42,40,39,41,41,31,37,35,33,34,35,29,37,36,35,34,34,26,33,31,30,31,31,25,25,27,26,37,41,42,41
fist,2,2,25,24,47,48,47,48,49,28,23,28,38,38,38,38,36,30,42,45,54,70,102,106,104,107,125,120,115,117,114,89,62,68,76,83,86,87,89,89,97,96,109,113,111,141,186,216,276,285,284,288,281,234,293,340,350,357,445,548,522,535,558,561,606,638,619,657,685,559,585,617,553,495,490,459,410,444,397,426,390,380,324,315,315,328,426,470,531,482,462,371,310,162,168,141,135,127,125,84,80,80,76,60,59,78,82,84,84,80,58,38,34,34,32,47,49,48,48,50,51,50,49,49,47,33,35,37,36,37,32,28,28,29,30,30,39,37,38,37,38,31,30,28,28,25,24,24,26,26,28,27,29,27
fist,2,3,24,24,22,21,23,22,25,25,26,23,27,30,57,60,60,62,75,66,63,66,70,74,70,81,108,113,125,134,135,117,115,97,93,105,130,170,192,209,218,243,250,249,248,262,293,311,303,310,306,258,224,267,284,373,421,464,500,551,523,553,590,551,518,506,447,365,422,459,479,505,567,574,614,606,602,609,615,592,662,700,750,796,789,806,832,857,864,870,807,802,772,672,668,685,612,498,525,447,372,329,287,231,212,198,190,146,105,97,88,99,127,130,131,122,108,66,53,44,42,40,39,35,36,35,37,39,36,35,38,42,41,43,44,46,41,41,37,37,30,36,33,33,34,36,27,27,26,28,32,32
fist,2,4,19,20,21,21,21,22,20,23,23,25,25,26,26,42,42,43,44,43,25,24,25,23,24,26,32,41,46,49,63,61,57,68,68,59,62,67,67,69,68,66,73,76,76,104,111,113,112,142,142,187,199,209,192,209,264,315,352,362,373,331,314,385,393,379,415,398,429,472,526,531,563,565,547,500,497,491,496,637,650,696,732,705,643,739,852,825,957,1002,989,906,961,883,986,1079,1089,1096,1074,978,839,848,800,781,711,713,663,638,658,609,555,469,451,391,453,461,483,453,395,295,310,277,263,244,224,155,116,107,100,95,60,53,53,46,42,42,42,35,41,42,48,47,46,40,45,37,98,179,184,188,190,169,83,72,62,53,47,37,35,30,30,29,27,29,24,32
fist,2,5,21,21,22,21,22,21,24,22,23,22,21,21,23,22,23,27,25,23,25,24,22,22,25,30,29,31,44,68,117,129,129,127,121,108,98,106,127,128,116,129,139,131,147,141,149,142,144,178,178,173,176,185,191,213,288,294,331,360,394,399,399,142,144,412,420,399,385,346,394,412,450,462,478,484,468,447,510,534,552,604,651,636,613,585,557,484,407,412,425,368,380,377,339,260,260,206,253,275,276,267,275,226,187,171,126,96,89,69,61,57,44,47,49,40,43,42,38,31,33,30,45,48,50,53,51,40,36,32,29,28,31,29,31,29,30,34,36,35,35,35,28,26,26,24,24,26
fist,2,6,25,24,25,24,26,24,25,23,22,20,21,21,25,25,27,27,27,24,23,32,40,44,51,53,87,104,110,113,117,111,114,129,130,150,144,139,126,141,134,133,201,209,211,236,261,223,229,258,236,213,198,251,247,263,311,334,319,358,343,320,304,279,196,216,181,180,168,166,151,156,152,146,135,115,106,92,81,97,105,96,90,90,66,38,38,43,41,39,39,39,31,27,38,37,37,36,40,30,30,32,37,35,35,36,37,31,36,34,33,30,30,25,25,26,30,30,34,37,35,32,32,27,25
fist,2,7,22,23,22,23,23,26,26,25,26,26,23,24,23,24,25,28,27,29,27,27,27,30,29,28,33,50,65,69,72,72,75,98,107,106,119,114,88,85,91,77,108,117,123,140,150,135,140,143,140,197,217,256,264,269,248,274,267,276,328,326,298,283,279,224,217,258,268,271,281,295,272,281,280,282,280,325,330,336,374,387,366,350,343,289,263,247,256,270,263,305,281,264,236,253,194,193,185,236,233,251,262,259,211,177,133,106,97,81,72,45,33,33,30,31,36,36,38,36,33,32,36,40,38,46,52,51,58,59,54,50,49,39,44,45,41,41,38,35,33,38,36,38,35
fist,2,8,24,24,25,25,24,23,24,23,24,26,28,28,28,27,25,23,21,22,21,20,22,24,24,25,25,27,34,41,53,63,64,69,73,74,89,94,98,111,117,122,160,180,222,238,243,249,246,233,234,237,229,241,226,233,314,332,357,351,351,317,303,314,360,389,381,391,404,443,467,471,503,521,494,515,552,718,789,861,864,891,839,768,675,616,533,351,282,245,242,197,180,149,148,137,141,147,158,154,155,156,149,140,153,148,140,115,110,76,65,61,55,40,38,39,40,40,36,34,32,30,30,25,25,26,27
fist,2,9,43,28,25,24,22,23,21,21,19,21,20,19,19,22,20,20,20,19,21,20,21,27,27,26,31,31,29,30,29,26,27,26,24,25,27,25,23,36,66,73,81,82,78,56,66,64,67,68,76,73,82,89,94,106,126,131,129,142,180,174,184,196,199,177,178,179,174,170,197,196,236,254,258,278,297,288,293,344,401,417,486,544,535,484,486,398,428,424,499,532,564,483,535,584,588,577,624,587,511,478,478,415,403,328,274,226,194,127,222,223,223,228,228,126,113,109,97,104,105,111,105,96,74,65,42,37,38,33,31,31,30,28,33,39,40,40,37,35,26,25,25,24,28,29,29,30,28,20
fingersSpread,2,0,20,23,24,23,25,28,26,26,28,27,23,26,24,25,25,25,23,23,22,21,21,52,124,280,386,422,451,462,419,387,391,408,438,483,482,526,528,581,581,581,538,592,559,563,557,667,637,608,630,632,618,600,597,649,678,582,554,568,489,474,476,479,460,470,408,418,404,373,233,214,125,149,137,136,138,120,68,59,175,189,199,202,207,132,108,90,83,69,55,45,41,38,37,31,27,27,26,26,28,27,28,32,32,29,31,31
fingersSpread,2,1,23,25,23,22,24,23,23,23,21,21,22,22,21,21,27,25,24,26,30,32,64,93,132,140,140,178,209,225,237,272,305,290,363,419,455,456,467,406,400,397,374,370,429,425,410,472,466,463,462,478,479,620,678,654,723,717,662,579,670,592,574,504,580,567,571,587,608,577,531,567,532,540,539,537,484,503,491,423,350,334,289,234,228,228,167,120,92,69,57,52,42,32,30,26,27,24,24,23,22,23,23,27,26,26,24,25,24,26,24,25,23,24,23,24,24,25,22,20,21,22,20
fingersSpread,2,2,24,26,24,26,26,25,23,24,21,22,23,22,21,26,30,28,29,28,25,28,31,36,97,137,155,191,224,243,256,255,243,230,260,268,296,319,371,405,449,511,506,507,533,503,530,559,596,596,590,533,557,617,603,679,740,749,721,730,673,670,670,606,566,597,496,471,529,535,514,507,503,461,464,435,452,427,376,319,284,241,139,97,71,57,44,41,31,27,25,24,23,26,24,24,24,24,21,24,24,26,25,28,25,26,23,25,24,24,27,26,25,26,28,25
fingersSpread,2,3,24,22,31,34,34,33,33,24,23,23,25,26,33,32,33,32,75,107,133,145,272,450,472,477,485,452,276,246,291,318,372,423,478,588,628,624,630,607,541,503,598,661,675,630,656,646,613,604,631,627,602,598,606,642,654,664,618,700,677,644,606,657,577,551,557,593,540,512,549,561,517,529,522,468,418,326,255,226,171,142,127,95,63,59,50,45,43,41,32,32,32,32,28,27,25,28,26,28,29,30,28,28,28,26,27,28,34,33
fingersSpread,2,4,30,29,30,29,27,24,27,25,26,25,25,28,68,307,363,415,440,456,360,376,331,305,284,272,220,212,231,233,271,246,249,251,275,307,327,329,346,340,292,294,393,384,399,468,451,403,447,427,366,380,419,399,416,470,476,514,522,522,498,520,505,572,596,589,585,562,493,475,498,533,544,531,521,549,530,468,506,586,577,564,583,550,500,491,460,485,492,457,395,423,380,379,369,357,316,334,322,300,293,282,211,125,98,78,56,48,39,31,30,26,25,25,24,23,24,26,26,25,27,26,25,27,29,28,30,30,28,28,29,29,29,30,30,27,25,23,23,22,24,24,27,25,24,22
fingersSpread,2,5,22,20,23,22,23,23,24,28,29,29,29,116,128,168,207,219,219,220,208,172,160,117,112,118,148,152,171,271,375,447,474,514,512,466,424,453,445,484,522,560,611,677,641,657,658,613,613,705,731,722,768,762,721,654,647,567,568,505,515,528,565,483,527,496,473,449,451,391,436,441,489,515,554,615,601,571,574,575,569,643,700,689,709,697,640,553,604,594,547,534,515,406,298,217,149,119,106,105,99,91,84,75,46,40,28,26,24,22,21,24,26,26,25,26,25,22,23,23,22,22,27,26,26,25,25,18,19,18,18
fingersSpread,2,6,23,24,22,27,26,27,25,26,27,27,25,28,27,23,25,25,24,23,23,22,26,23,26,26,40,40,43,45,47,46,48,48,68,127,147,194,207,219,228,248,263,290,323,324,326,350,379,381,413,455,443,433,439,451,423,452,438,455,432,414,359,475,435,421,521,530,433,429,458,371,396,387,442,417,421,512,539,557,571,555,473,471,406,392,408,389,339,328,340,357,391,403,410,369,307,209,178,145,160,177,193,221,212,193,173,145,82,66,45,35,34,31,26,26,27,25,26,27,29,28,30,29,29,26,27,29,28,27,27,24,20,23,23,26,25
fingersSpread,2,7,25,24,26,28,29,29,30,30,29,28,27,29,27,28,40,42,41,42,41,30,28,30,28,29,29,40,37,39,39,38,25,27,26,25,32,34,33,36,40,40,41,43,42,43,45,44,47,54,58,64,66,70,66,69,74,159,207,242,249,265,250,336,323,348,383,421,366,387,391,358,391,499,575,608,645,624,588,568,601,561,561,524,525,467,470,451,513,477,512,514,514,499,496,430,459,500,486,558,581,585,609,599,579,606,636,663,643,643,632,586,511,573,509,451,431,382,227,163,150,102,84,62,52,39,35,29,30,28,27,21,23,23,23,26,26,23,23
fingersSpread,2,8,23,21,24,23,24,23,25,20,23,22,21,20,22,20,24,24,22,22,23,22,22,23,24,23,22,23,23,20,23,201,376,404,408,412,368,187,121,110,94,67,59,51,179,257,392,584,640,635,702,654,504,463,469,343,381,391,389,428,449,397,379,458,470,449,493,512,477,477,503,547,544,525,462,546,513,535,519,540,518,551,575,574,665,643,570,545,548,440,493,533,557,554,558,439,392,290,253,158,140,172,174,185,184,195,184,200,188,185,165,111,61,50,43,36,29,29,27,25,25,25,26,26,25,32,36,36,37,38,31,29,28,29,27,25,26,23,20,24,27
fingersSpread,2,9,23,25,24,21,20,21,26,26,27,30,30,25,27,27,23,24,28,25,26,25,26,23,23,23,25,23,22,27,26,26,29,28,25,25,25,21,24,24,24,22,25,26,28,27,29,28,25,27,27,30,34,44,42,43,48,52,44,46,51,92,197,232,369,506,562,571,651,609,539,488,462,370,405,376,456,509,642,632,722,689,655,577,581,580,609,629,568,625,607,624,648,693,632,573,603,562,528,680,692,629,701,752,630,623,691,625,535,510,475,343,300,294,253,286,250,289,280,291,226,218,123,116,76,65,56,39,24,25,26,25,25,25,29,28,29,26,32,29,32,31,31,25,26,23
waveOut,2,0,27,23,26,26,28,25,27,26,30,30,29,27,27,23,23,23,26,26,26,24,25,23,25,26,35,35,45,51,54,50,56,59,66,73,80,90,94,95,132,143,148,175,180,264,318,329,322,335,285,227,246,329,373,375,374,352,288,291,316,331,336,336,265,212,190,184,159,206,247,249,253,332,366,337,338,384,388,344,343,334,268,136,102,96,84,84,84,68,47,69,71,100,133,178,172,174,160,138,78,94
waveOut,2,1,23,26,24,25,24,26,23,22,22,23,24,24,23,22,23,23,25,25,25,25,23,29,31,31,31,37,38,39,42,50,52,64,73,78,89,97,95,112,128,166,188,195,190,186,156,147,233,342,372,387,398,349,266,273,342,375,392,396,384,322,269,247,228,211,188,198,263,288,271,280,268,236,202,196,200,191,177,163,167,143,170,157,151,147,142,98,60,58,46,36,37,31,31,31,32,39,40,39,40,40,35,36,35,36,36,38,39,40,38,36,34,31,30,30,30,25,24,26,23
waveOut,2,2,27,28,29,30,29,28,25,23,22,22,22,22,23,24,23,22,23,23,26,32,33,30,35,39,44,54,59,58,61,62,66,74,79,87,117,133,140,165,172,191,199,199,211,230,268,298,311,306,303,265,238,238,248,258,306,309,345,358,353,328,354,330,307,293,287,297,297,303,348,329,296,297,291,242,261,239,225,244,242,214,206,200,184,179,205,227,216,203,200,212,226,243,254,254,227,189,177,217,278,288,344,348,358,330,329,273,257,178,136,109,83,66,59,52,42,43,43,43,34,35,30,37,36,36,38,37,29,28,33,32,31
waveOut,2,3,21,23,24,23,26,26,25,25,26,27,26,26,26,26,22,24,25,24,26,27,26,26,27,23,24,26,27,30,30,32,34,40,39,44,45,47,51,55,62,73,77,82,85,91,95,98,123,141,162,191,198,195,209,212,192,190,219,250,272,286,305,368,399,408,419,414,351,283,240,218,227,233,235,242,224,236,212,261,266,281,327,429,427,480,532,555,492,474,449,426,353,337,328,281,210,179,176,162,133,105,77,58,51,45,38,34,33,32,32,27,29,28,28,27,23,20,21,20,20,22,25,25,23,25
waveOut,2,4,20,20,21,22,25,28,26,30,29,28,26,29,27,27,27,26,25,24,25,26,27,24,26,25,26,27,29,28,28,29,28,26,27,26,24,24,27,28,31,34,39,41,45,43,42,42,42,45,49,53,57,57,59,70,70,70,73,75,71,75,75,42,42,45,89,116,150,191,209,223,300,335,349,361,414,397,370,351,343,279,258,252,280,300,302,272,266,236,231,241,280,289,290,287,305,309,325,326,313,290,279,281,263,245,220,173,95,83,76,67,58,48,46,46,41,40,38,37,24,24,24,21,21,22,24,23,26,25,23,21,22,21,25,25,28,28,25,24
waveOut,2,5,27,26,26,25,22,23,25,26,25,24,23,22,23,24,22,23,23,22,21,22,20,22,19,21,20,23,21,23,24,26,28,33,34,34,41,42,45,47,50,49,50,47,52,52,55,55,62,70,76,90,102,105,108,113,121,125,136,192,207,217,235,242,323,347,346,344,342,250,215,246,255,251,272,294,291,270,275,248,229,180,197,194,176,148,196,195,193,198,217,187,176,174,170,142,124,106,84,93,82,81,77,81,57,56,52,49,40,37,36,33,30,29,35,39,39,39,38,35,27,25,23,23,18,20,20,23,22,25
waveOut,2,6,23,22,23,23,24,26,27,27,25,26,26,30,30,36,36,39,38,40,36,35,36,33,37,39,44,46,46,47,50,49,52,56,58,62,79,81,100,119,121,128,163,162,168,184,185,178,181,181,184,189,186,186,173,162,161,154,148,155,160,146,148,147,138,129,128,108,112,118,128,144,157,165,166,156,152,161,149,156,157,153,127,131,144,143,137,139,132,105,103,98,104,119,116,112,108,96,73,64,70,69,67,63,62,47,48,48,48,56,56,51,48,44,26,23,25,26,27,25,31,31,34,33,35,30,34,30,31,29,31,27,28,26,28,28,29,30,30
waveOut,2,7,25,24,22,20,22,23,28,29,29,29,28,26,28,28,27,27,28,25,23,25,27,24,23,25,25,26,26,34,37,44,45,46,52,59,57,59,61,54,50,56,60,66,80,85,81,83,84,77,106,120,136,162,171,162,157,151,134,147,169,178,175,180,175,152,142,192,195,194,190,193,139,127,112,158,168,188,193,213,210,198,194,242,257,243,256,253,217,219,214,258,277,286,265,261,204,169,197,193,235,244,279,253,249,215,223,217,199,229,262,256,227,227,195,142,136,129,138,140,136,115,114,94,80,67,67,65,47,48,47,44,51,53,54,58,57,41,41,41,42,40,38,35,34,28,29,28,30,27,26,27,28,25,25,23,24,22,24,26,27,28
waveOut,2,8,41,28,27,26,26,25,24,25,23,29,32,34,35,37,39,44,41,41,41,39,31,32,33,36,40,43,58,63,62,72,78,71,87,128,149,158,169,168,156,154,181,198,232,278,315,369,371,373,386,394,368,394,385,373,371,346,343,356,322,302,335,326,310,314,311,293,265,271,259,276,284,299,301,304,268,221,203,196,215,200,201,183,149,105,101,84,70,64,56,60,54,49,49,59,52,45,44,44,31,37,36,36,36,32,25,23,24,25,27,29,32,31,29,28,24,22,23,22,22,22,27,27,29,28,28,25,26,27,27,30
waveOut,2,9,23,23,23,21,23,22,23,22,23,22,23,22,22,22,21,21,27,29,28,31,33,28,27,28,25,24,25,24,29,29,28,30,30,30,31,30,28,29,29,32,34,35,34,33,29,30,30,32,37,43,52,65,70,86,116,129,186,212,211,197,202,152,141,163,181,204,252,286,311,326,320,299,262,248,238,223,211,200,164,145,157,152,159,195,186,169,169,176,160,171,179,192,200,186,183,180,169,165,160,182,193,214,205,225,224,252,265,275,275,299,329,338,346,356,331,270,223,194,144,114,114,107,108,114,116,102,98,91,66,52,48,50,39,40,45,50,50,45,42,51,47,49,49,50,35,34,28,36,44,45,47,47,40,32,30,27,27,28,26,27,29,28,27,25,21,19,19
waveIn,2,0,25,89,197,237,252,275,296,318,481,522,602,674,746,768,861,945,960,1004,1006,1013,906,930,871,869,893,981,1023,1095,1097,1071,1049,1014,969,1026,968,1013,1011,1005,1004,1179,1131,1142,1211,1148,1014,1026,1025,1022,980,987,945,923,809,812,795,805,885,936,991,941,942,926,867,869,860,848,690,652,552,517,573,629,578,534,523,360,163,137,103,79,63,53,49,41,39,35,35,31,29,25,24,26,26,22,23,27,26,24,24,27,26,27,30,31,32,31,30,27,27,20,21,21,22,20,21
waveIn,2,1,24,23,23,25,25,26,29,30,29,27,26,23,138,203,220,228,231,218,160,148,156,160,147,157,156,178,190,296,359,414,504,550,663,680,713,769,920,907,970,960,933,843,867,839,886,982,1002,948,935,958,882,949,983,1092,1126,1123,1110,1128,1039,993,1050,1064,1061,1101,1110,1033,963,995,949,986,981,988,954,1077,1027,1012,1044,985,821,766,731,557,479,376,253,198,131,98,79,61,47,41,43,47,50,59,57,56,52,50,35,38,34,35,36,37,35,32,33,35,36,37,36,36,30,26,24,31,29,30,30,29,24,28,30,31,31,32,31,27,27,27,28,26,25,25,26,25,24,25,23
waveIn,2,2,25,26,24,25,23,23,22,23,69,248,325,367,425,506,611,691,782,837,891,874,910,955,1057,1049,1052,1066,1064,939,948,920,861,814,844,892,901,908,899,893,850,839,807,864,946,1015,1067,1068,1052,1013,894,863,886,855,843,850,940,973,998,1055,1183,1195,1202,1211,1171,1089,1000,946,868,938,952,928,890,866,724,672,708,717,792,755,716,631,591,475,457,409,358,349,296,261,122,89,70,58,45,42,39,35,36,32,32,33,32,34,36,33,35,35,31,30,34,32,30,32,32,29,28,28,26,24,25,24,25,26,26
waveIn,2,3,29,29,28,24,23,25,26,28,27,27,26,29,26,24,29,30,25,28,45,172,219,339,425,559,706,791,820,907,959,944,1011,983,887,828,774,666,743,847,884,901,969,981,991,1065,1105,1145,1137,1074,956,989,933,954,1008,1013,975,935,933,953,1006,985,1036,1045,1038,1004,1008,927,885,826,832,868,860,830,819,796,690,674,665,696,684,662,659,665,572,528,514,472,365,373,333,288,255,250,191,98,72,55,45,38,31,30,33,32,30,30,28,23,25,27,30,28,28,30,28,28,32,31,30,28,27,22
waveIn,2,4,27,30,29,24,29,28,24,25,25,24,25,24,24,26,23,21,31,32,33,34,36,29,30,32,36,35,37,34,37,33,39,73,174,236,264,276,313,362,453,609,742,769,866,899,857,831,935,882,873,902,935,890,905,910,853,825,816,961,968,1035,1082,1073,978,937,974,930,942,978,1028,959,1006,1042,1004,1006,1011,976,995,988,997,1081,1084,1043,1087,1085,989,969,989,916,918,983,995,942,911,886,818,766,853,903,865,860,921,855,857,854,884,871,899,884,873,812,841,779,703,670,664,493,426,387,362,278,210,118,107,80,66,52,44,44,41,33,34,33,30,29,30,32,32,29,33,31,28,27,32,29,32,32,34,33
waveIn,2,5,31,24,25,27,26,29,29,27,25,25,23,23,25,23,23,20,24,26,26,28,28,26,23,25,24,26,28,30,29,30,29,28,26,25,27,26,25,25,23,19,20,20,18,21,78,249,367,436,493,669,690,726,781,799,735,826,964,1006,1133,1158,1167,1123,1093,1049,1078,1006,919,929,849,772,794,819,836,886,968,987,1060,1107,1128,1048,1046,972,936,927,1016,1069,1076,1013,993,976,939,1028,1113,1175,1168,1201,1087,983,894,848,775,743,735,691,673,604,598,573,488,388,279,252,195,152,107,89,63,54,51,38,32,32,33,26,30,33,34,30,32,32,34,35,38,42,43,40,40,39,36,36,33,33,32,29,27,27,28,27,26,28,28
waveIn,2,6,28,29,30,29,30,27,28,34,44,66,72,74,169,265,332,361,422,466,527,547,637,696,732,772,795,867,901,1056,1076,1098,1099,1095,987,983,1038,951,994,1107,1081,1081,1101,1070,921,891,852,865,844,854,927,928,944,955,932,928,926,871,836,863,827,770,840,903,868,886,968,1074,1071,1108,1074,1058,932,1000,1001,1056,1004,1008,858,834,782,757,665,703,608,495,428,397,188,159,129,104,84,71,61,58,48,45,49,43,44,42,44,39,38,34,32,27,29,34,35,36,36,36,29,26,25,28,24,26,25,23,21
waveIn,2,7,25,28,28,26,28,30,27,30,30,28,26,28,25,25,25,27,27,27,29,30,28,26,25,27,40,113,121,126,136,165,167,176,267,304,420,521,546,556,703,722,794,845,934,916,953,936,1005,1021,1078,1078,1059,1041,1040,928,920,962,942,893,898,937,906,902,922,943,929,910,962,903,972,949,956,846,847,768,748,675,703,714,690,606,649,629,687,694,756,711,753,739,768,737,770,717,657,638,716,768,772,811,796,707,673,631,536,439,384,204,180,126,116,99,76,68,53,54,48,50,48,46,41,40,38,39,40,41,37,33,30,28,24,21,24,26,32,34,35,33,33,28,29,30,30,29,33,30,34
waveIn,2,8,25,28,26,28,28,27,25,25,23,22,23,25,27,27,28,31,30,31,31,30,90,95,98,100,148,299,428,558,654,715,740,719,853,986,994,1023,1115,1099,1031,1064,1031,1071,972,969,957,1063,989,1082,1099,1140,1048,1132,1156,1109,1099,1148,1088,992,995,950,1002,993,1055,1113,1162,1129,1109,1034,971,980,961,966,988,1031,980,929,922,857,846,812,768,708,774,667,635,655,645,538,494,488,413,323,308,294,158,133,113,80,60,45,42,37,35,38,38,35,41,44,40,39,40,34,28,27,23,24,22
waveIn,2,9,29,26,26,28,26,23,25,25,24,26,24,24,35,47,136,256,304,338,390,566,635,702,842,865,902,866,879,855,895,836,853,930,880,899,899,566,635,893,976,957,1117,1111,1175,1135,1062,945,982,905,884,945,1035,984,994,1093,1064,982,1001,1036,980,985,976,995,934,969,981,993,1031,1105,1017,997,953,810,696,730,666,572,547,475,295,234,200,176,102,71,61,43,36,33,31,29,27,28,30,27,28,30,33,29,31,32,31,27,28,26,29,28,29,29,28,23,23,25,30,32,31,35,34,31,30,31,28,29,27
doubleTap,2,0,26,26,26,31,28,34,33,36,32,33,30,32,30,30,30,27,24,23,22,21,21,23,23,25,28,30,29,30,29,26,27,36,38,40,126,293,412,438,453,448,370,262,258,383,391,413,436,456,403,394,377,330,270,164,133,88,76,66,76,75,77,89,90,82,105,104,93,93,93,66,62,101,104,103,101,101,61,49,47,46,46,45,42,39,38,33,33,33,35,36,44,39,38,36,35,34,33,34,34,35,34,37,39,38,46,41,38,37,48,58,60,64,68,62,46,45,46,39,41,39,39,39,40,37,39,40,38,39,38,37,35,28,35,35,35,37,34,24,24,27,25,28,30,31,27,26,35,37,37,38,38,29,29,27,27,25,30,30,36,71,134,341,363,417,544,587,567,570,550,430,355,236,233,389,450,493,557,562,535,597,633,711,705,647,549,464,219,203,245,226,226,216,193,132,142,140,133,134,128,122,129,128,127,107,126,116,118,125,125,89,88,111,104,104,138,143,128,127,124,85,89,81,79,70,94,88,91,90,90,61,68,101,106,112,112,102,65,62,64,71,75,75
doubleTap,2,1,25,27,27,26,27,27,27,26,25,26,27,25,26,25,23,25,26,29,30,29,27,26,24,23,22,23,24,26,29,29,30,30,29,31,33,34,32,32,27,26,28,30,49,97,184,316,339,391,554,593,569,559,527,345,239,185,301,366,427,454,493,568,682,764,868,861,794,684,555,337,335,300,260,245,237,214,218,215,216,212,148,127,119,113,128,129,119,119,124,136,135,175,178,177,180,181,149,138,134,102,135,130,132,131,130,107,99,95,92
doubleTap,2,2,20,22,21,22,21,29,59,67,69,69,67,45,33,28,28,27,28,28,29,27,27,26,26,27,28,29,27,29,27,27,28,27,41,42,43,42,43,32,32,36,43,64,173,349,393,509,630,635,579,564,471,299,252,234,341,462,499,598,684,744,717,693,617,519,337,231,237,246,228,237,231,210,176,165,137,140,161,149,150,144,159,159,165,168,171,167,161,152,165,180,170,156,152,137,123,119,132,131,130,119,120,98,144,139,139,135,143,109,139,144,152,144,141,102,95,81,87,82,103,99
doubleTap,2,3,28,30,33,32,35,34,34,32,31,24,53,71,94,106,115,108,100,82,69,53,47,37,38,34,34,34,37,31,27,31,31,28,32,34,32,31,32,27,24,21,23,36,38,41,44,45,35,36,59,59,60,63,87,149,457,580,635,683,677,526,393,320,397,557,615,650,690,718,659,618,593,542,367,237,203,178,158,171,177,168,144,143,137,132,131,120,134,111,102,96,90,51,104,105,117,119,130,104,105,91,90,100,92,90,89,109,93,98,96,96,75,84,75,90,90,90,92,89,72,81,77,54,56,71,68,82
doubleTap,2,4,28,29,27,26,25,24,21,23,24,25,23,25,23,25,26,24,22,24,22,20,23,22,21,22,21,22,22,23,22,22,23,26,28,28,28,27,24,30,45,92,234,308,380,392,392,346,292,201,205,211,275,357,452,496,513,493,434,333,245,189,117,106,89,74,71,57,56,61,65,58,58,58,43,36,35,33,33,33,38,39,39,37,43,34,34,33,36,33,33,33,33,29,27,34,35,35,36,35,30,36,38,38,45,48,42,41,42
doubleTap,2,5
doubleTap,2,6,24,23,25,24,25,27,29,28,28,27,27,27,25,25,27,25,24,27,26,24,26,25,23,25,25,23,24,26,24,26,29,33,31,37,36,35,33,35,45,117,205,338,373,481,481,457,375,341,168,224,321,354,380,454,519,486,463,447,370,206,133,115,104,121,123,124,124,124,103,97,98,97,83,60,73,75,74,71,71,49,38,41,38,38,38,39,35,57,56,58,59,58,39,40,37,35,34,29,29,29,27,28,28,27,26,28,38,59,84,95,99,98,88,70,57,50,43,41,31,25,27
doubleTap,2,7,25,26,28,24,44,72,76,76,76,69,44,37,35,35,29,24,29,30,30,29,28,22,20,22,22,24,27,27,26,31,30,29,36,50,131,310,414,443,492,488,418,331,306,233,273,403,533,622,665,665,608,496,369,284,228,151,122,110,119,112,109,108,108,66,55,48,44,41,38,39,37,38,39,38,36,38,35,33,29,32,30,33,39,37,37,36,36,30,30,26,27,25,25,23,25,25,22,21,23,20,21,22,23,22,22,22,24,23,26,27,28,25,27,25,26,23
doubleTap,2,8,28,27,29,30,27,25,24,25,23,23,28,32,43,62,78,81,181,273,365,431,453,440,398,317,227,346,486,585,614,635,673,588,547,547,524,372,341,224,119,83,73,95,91,95,95,91,60,57,43,81,82,83,85,84,47,44,42,37,36,31,33,35,36,37,37,36,34,35,28,37,36,35,32,34,24,29,29,29,28,29,26,32,35,34,34,33,25,36,36,35,36,43,34,35,36,35,25,25,25,23,24
doubleTap,2,9,24,27,29,31,31,30,29,27,29,27,30,28,29,29,30,32,31,32,29,29,26,27,22,23,26,28,27,31,34,31,30,31,27,23,24,21,19,24,25,28,28,33,35,40,54,180,284,374,390,393,359,291,195,221,429,545,624,655,668,620,559,505,457,414,311,227,124,164,167,180,181,177,125,114,88,90,84,73,69,48,40,36,38,33,34,29,30,29,30,30,31,29,31,33,33,37,38,36,33,33,29,36,37,40,43,41,35,45,44,71,156,269,374,469,516,502,459,385,275,201,325,548,575,605,650,677,636,709,687,644,558,407,179,145,97,103,105,111,131,131,134,133,132,125,126,107,96,112,121,131,133,133,152,131,121,125,125,77,77,91,80,96,92,96,95,95,81,79,72
fist,3,0,87,75,75,77,76,95,98,170,478,512,529,540,554,410,393,378,366,333,349,600,814,907,963,951,855,737,712,691,748,759,807,852,892,928,915,870,835,811,819,818,792,723,675,529,543,538,579,607,612,647,677,663,661,701,648,631,617,615,571,626,571,586,622,669,588,642,608,516,487,519,445,442,516,548,663,834,849,870,844,779,626,716,795,825,818,871,790,666,638,646,569,563,532,481,412,362,360,355,356,337,326,319,285,269,296,298,289,276,268,212,231,205,207,208,214
fist,3,1,77,75,66,42,57,66,72,73,75,77,82,83,85,105,107,104,104,104,83,67,66,63,75,76,80,75,74,59,74,77,79,79,97,109,146,190,234,253,276,289,272,258,277,270,328,402,451,458,473,488,463,497,640,718,768,787,779,698,654,573,699,694,723,742,755,701,734,678,709,756,751,827,874,873,877,914,798,842,797,831,741,873,795,773,794,762,656,772,933,828,859,833,732,554,656,690,766,843,878,814,773,736,646,557,550,537,492,542,560,572,569,532,442,380,297,246,273,272,284,290,297,292,322,316,312,320,274,202,191,193,179,170,172,181,181,184,176,167,182,193
fist,3,2,155,172,181,179,195,191,177,157,158,116,94,103,110,126,124,121,130,133,119,127,160,146,141,137,151,135,125,127,125,111,88,94,87,86,82,77,67,62,63,48,48,57,95,124,124,127,127,107,74,91,105,111,112,119,114,105,102,168,187,202,279,344,346,381,452,496,633,747,770,798,851,810,750,753,753,687,646,685,684,618,709,876,890,914,940,893,799,789,826,873,879,909,895,912,843,793,668,631,475,488,491,449,405,433,401,385,378,472,441,460,492,552,546,551,575,572,610,542,548,635,649,633,679,740,679,643,592,581,499,452,459,437,395,400,397,361,364,319,290,263,279,274,304,272,282
fist,3,3,202,203,148,150,140,137,134,124,110,72,59,58,53,108,132,138,141,153,139,117,110,112,106,120,167,176,182,179,162,118,146,180,180,181,191,216,299,311,322,358,396,403,418,490,491,465,497,583,678,692,741,736,712,711,810,830,827,847,801,751,747,770,759,799,771,719,693,643,532,522,585,553,566,572,515,394,381,332,243,266,264,198,181,202,228,277,330,544,579,601,638,659,520,492,450,381,331,306,288,309,302,374,437,456,444,464,458,459,459,507,502,473,432,486,435,453,412
fist,3,4,95,91,63,65,71,68,82,82,95,88,88,70,71,109,137,163,179,195,179,163,139,126,113,104,99,99,94,153,185,195,231,243,242,238,247,239,261,273,277,297,318,302,283,287,283,311,323,437,506,551,571,607,546,498,507,493,532,606,653,703,735,691,623,662,684,718,719,763,702,687,592,620,565,549,405,404,314,281,226,228,193,184,209,217,241,255,279,263,269,293,274,270,320,344,317,333,369,341,386,387,384,368,399,378,396,393,369,344,306,257,256,264,237,209,210,193,200,183,195,183,226,202,199,177,186,136,161,162,164,180,169,175,178,175,146,143,87,82,97,90,89,139,141,136,139,172,179,198,217,216,192,165,146,124,127,138,123,106,131,142,159,169,172,159,149,137,154,197,208,228,219,199,180,164,147,144,150
fist,3,5,107,111,116,101,102,93,78,69,99,99,102,99,104,107,104,109,126,123,97,97,91,72,82,99,113,114,116,134,152,154,164,158,152,140,146,140,154,149,136,122,119,161,155,174,175,197,159,188,195,260,284,345,390,397,385,421,418,406,472,603,606,604,610,584,493,546,589,602,635,743,919,903,924,973,918,717,758,721,694,684,743,768,805,823,809,756,793,816,807,804,785,669,595,512,520,539,555,540,585,541,513,494,506,401,395,393,352,336,322,315,268,335,318,328,312,328,256,258,269,277,279,274,283,270,264,249,252,286,305,327,326,327,299,274,256,246,239,206,216,201,201,191,186,154,137,133,204,233,262,292,320,277,253,241,218,185,196,261,268,262,257,253,196,195
fist,3,6,117,117,118,149,144,133,134,150,126,111,112,110,88,57,70,64,62,61,60,45,44,43,75,84,94,136,164,164,163,159,138,128,117,128,128,121,133,140,188,192,243,255,256,228,244,273,283,292,302,311,277,260,264,261,259,258,259,294,400,416,435,495,491,463,468,543,567,613,662,799,794,749,721,657,504,436,433,458,435,406,398,429,374,381,361,332,272,247,259,280,257,252,305,288,269,325,323,302,353,385,374,385,380,341,303,266,256,236,201,185,220,211,209,226,230,195,200,193,223,227,226,234,240,200,201,216,202,184,182,160,161,144,144,134
fist,3,7,159,166,193,167,165,166,159,135,145,119,121,154,172,165,167,156,150,136,135,132,132,99,73,67,67,69,108,138,143,148,152,118,101,113,116,121,123,130,121,114,105,105,78,71,69,67,81,82,89,99,104,110,113,126,121,125,128,137,125,146,143,174,186,208,241,250,239,247,416,490,585,636,704,721,670,593,545,454,302,304,305,325,324,288,281,312,317,311,378,378,392,364,391,340,364,319,315,280,266,206,196,178,173,151,144,177,192,195,197,211,183,195,219,232,249,254,264,267,282,269,275,279,312,323,371,392,382,344,308,245,203,188,178,176,167,193,182,192,209,221,216
fist,3,8,155,196,189,191,186,177,153,157,151,155,144,116,142,141,136,148,151,127,129,167,158,173,189,186,145,139,100,67,81,79,95,103,100,106,118,113,106,147,161,180,194,204,186,175,151,140,151,144,133,145,134,110,101,101,84,115,142,147,163,168,157,144,154,154,190,206,198,213,226,277,293,308,319,352,311,326,340,379,377,425,462,540,522,533,509,496,441,448,416,406,362,360,314,306,326,313,235,244,235,167,196,211,214,205,207,185,172,191,254,275,285,297,296,307,333,332,335,348,311,278,281,289,281,293,328,337,336,321,326,354,342,326,321,293,193,182,174,178,171,220,209,216
fist,3,9,23,26,56,72,80,84,94,84,72,64,62,57,54,55,53,51,34,34,35,34,34,34,36,32,33,39,43,42,48,58,56,65,69,72,68,76,80,90,111,139,146,151,160,168,151,158,165,161,196,271,289,354,420,432,484,542,547,520,580,540,485,448,476,390,372,430,484,498,500,537,512,502,463,448,394,382,329,295,280,252,194,137,196,211,212,212,216,169,176,222,292,301,311,297,279,210,195,190,200,181,208,211,222,210,252,264,261,236,237,221,183,201,200,217,198,192,172,187,174,192,186,198,184,180,157,157,139
fingersSpread,3,0,32,31,31,26,30,27,28,27,30,24,25,26,43,43,47,118,157,172,318,457,691,769,848,913,1016,962,971,998,988,902,930,950,1041,1013,1026,954,953,784,803,764,775,739,844,858,903,879,907,858,821,822,950,981,964,1027,969,844,776,749,626,697,728,693,665,624,478,368,292,213,208,191,170,82,64,56,47,42,41,32,42,67,93,96,115,114,124,143,165,155,157,175,185,171,184,188,166
fingersSpread,3,1,131,153,142,145,124,102,72,78,71,68,62,51,36,75,94,123,146,156,173,303,429,461,558,655,671,723,762,739,720,756,704,672,748,809,873,832,865,886,853,841,943,991,927,923,852,776,755,806,764,773,783,773,729,803,818,827,801,841,901,892,924,916,894,893,895,823,881,973,913,870,881,817,688,626,609,591,613,557,482,458,456,338,308,306,301,228,185,114,86,63,41,41,34,27,24,25,22,22,22,21,19,20,20,22,22,21,19,21
fingersSpread,3,2,19,18,17,17,17,18,19,21,22,22,22,23,22,19,20,20,19,18,20,23,41,168,239,429,552,693,775,813,861,828,838,826,935,898,903,892,950,867,850,880,892,867,839,859,864,809,737,753,795,782,778,793,807,756,776,784,886,875,876,889,885,785,799,805,784,777,798,799,835,799,753,727,795,730,857,949,933,849,899,859,842,877,973,984,945,930,886,748,655,575,502,500,490,444,420,356,301,250,171,133,111,85,72,64,50,46,42,35,33,32,29,28,28,26,26,23,23,20,20,19,20,19
fingersSpread,3,3,23,25,22,23,21,21,22,24,21,24,23,21,24,132,191,277,295,307,410,424,383,380,407,333,455,497,502,479,618,534,516,524,565,462,552,561,630,646,675,673,764,767,833,819,816,814,817,756,801,859,795,828,849,803,709,720,712,683,709,720,746,699,715,708,701,684,671,641,595,604,653,671,705,785,780,730,747,754,706,758,830,809,817,849,815,759,777,812,765,748,762,703,647,608,567,500,494,372,334,315,216,200,219,191,184,176,147,95,79,56,45,34,34,27,25,26,25,25,23,25,24,25,23,24,23
fingersSpread,3,4,21,22,23,23,24,25,24,25,25,27,25,24,23,21,20,21,21,21,23,22,23,67,180,217,328,509,584,667,711,750,738,740,665,647,621,672,725,778,792,810,745,735,766,846,844,913,950,997,971,1024,976,928,891,906,960,961,969,956,994,908,1028,1000,1002,961,968,834,874,888,860,877,955,996,940,956,864,715,566,589,506,503,502,473,358,260,204,139,87,77,65,44,39,31,27,22,22,23,23,22,22,21,21,21,21,22,21,20,19,18,17,16,17,18,19
fingersSpread,3,5,26,26,23,26,23,21,22,23,21,22,24,23,21,21,20,19,22,24,27,29,30,178,204,227,273,292,260,281,390,394,459,485,516,565,592,614,752,784,737,813,813,758,738,816,827,859,834,862,860,852,846,840,830,808,787,829,818,810,881,852,848,876,961,932,911,856,934,916,854,877,860,829,757,753,800,814,754,719,780,707,800,852,935,897,901,814,751,730,751,785,842,855,930,899,956,950,920,766,715,554,409,333,322,364,356,326,318,270,170,119,94,57,43,40,37,28,27,27,24
fingersSpread,3,6,17,17,22,21,22,24,24,20,24,24,22,21,22,19,21,20,21,22,22,19,20,19,18,19,23,26,54,56,99,102,125,124,146,141,171,167,182,196,237,239,274,288,306,328,322,364,472,586,707,750,845,818,873,829,882,872,878,835,807,745,657,762,739,757,877,914,823,825,815,696,659,651,687,741,793,847,911,896,906,853,817,766,766,738,820,823,825,834,822,776,770,859,829,826,809,851,738,708,665,729,745,773,754,760,683,566,508,530,504,452,423,380,296,236,180,119,108,79,59,51,42,39,32,24,22,20,19,18,16,20,19,21,22,23,20,22,20,22,21,24,23
fingersSpread,3,7,561,570,604,624,733,786,862,839,849,793,743,719,718,716,741,709,764,857,866,898,935,890,863,880,907,935,885,806,822,801,787,873,922,882,876,831,842,854,839,775,828,881,877,934,925,886,781,725,685,762,805,775,784,764,669,543,490,451,430,418,401,382,371,285,242,258,251,183,175,230,205,202,204,198,98,74,63,39,38,31,32,32,34,31,34,29,28,31,32,31,32,35,31,30,37,35
fingersSpread,3,8,23,22,23,25,24,24,28,28,26,27,27,25,24,23,23,22,20,20,22,20,21,20,21,24,26,115,147,225,240,249,228,212,133,252,267,272,365,429,476,515,551,626,689,715,804,844,883,852,822,788,819,796,870,846,819,802,770,849,870,921,913,888,742,847,886,957,1048,1081,1014,942,914,855,843,908,934,890,864,873,877,906,868,851,839,735,625,637,671,614,588,556,526,387,326,304,279,229,211,148,85,71,60,53,46,37,30,31,31,25,25,24,23,23,24,23,22,21,21,23,23,25
fingersSpread,3,9,21,22,23,25,22,24,25,23,22,22,22,22,25,24,28,27,28,26,28,30,28,26,28,29,26,28,28,27,24,22,21,20,25,34,128,139,140,143,143,77,75,78,85,101,113,144,177,181,188,190,186,198,199,192,209,194,157,173,204,202,204,235,267,339,377,389,401,417,427,438,470,473,496,450,571,626,702,719,811,767,750,736,767,805,801,838,807,835,810,805,749,754,763,784,858,871,912,927,860,854,973,946,902,907,857,741,820,820,800,799,810,724,672,741,802,764,749,753,787,720,771,788,824,725,696,638,610,659,661,674,627,628,505,433,355,348,321,236,243,228,218,151,153,134,112,111,92,73,48,40,34,25,20,21,21,22,20,21,21,21,21,21,20
waveOut,3,0,55,56,58,59,54,50,53,52,61,71,72,72,74,69,47,43,36,28,23,21,22,21,23,26,35,38,47,52,70,98,107,122,141,165,165,21,22,175,179,187,184,174,172,178,189,201,222,219,229,221,218,238,241,231,222,228,200,267,310,490,645,656,637,639,672,523,509,512,508,279,314,340,326,298,288,297,282,282,282,334,313,302,333,347,321,357,388,372,378,363,332,341,349,337,452,498,471,479,496,426,370,507,577,590,659,735,729,690,699,644,575,475,462,443,431,413,398,359,303,269,217,282,271,265,266,266,187,206,221
waveOut,3,1,154,164,160,160,194,203,210,202,200,169,169,150,184,176,189,190,205,171,180,186,180,162,192,245,236,240,256,230,176,178,160,135,162,157,171,173,180,168,167,156,182,187,189,209,243,229,238,246,268,232,248,240,348,334,344,361,397,311,329,326,294,286,296,295,337,340,397,435,523,530,609,600,655,615,625,570,620,547,502,454,445,333,335,347,395,376,337,356,403,395,463,524,520,510,499,459,410,406,522,551,538,566,537,420,359,349,262,279,214,187,182,226,198,191,193,182,152,151,133,135,149,138,187,195,204,197,191,158,164,159,154,154,163,147,141,151
waveOut,3,2,95,104,117,117,128,109,102,99,101,82,111,114,105,98,97,174,182,190,192,198,114,111,100,110,97,93,80,73,45,49,51,54,60,75,78,93,94,100,104,109,99,118,121,114,114,130,124,122,134,145,150,152,188,196,200,243,256,244,235,232,206,202,200,245,255,235,256,257,228,222,235,203,205,201,186,162,180,170,164,171,195,177,185,190,192,179,248,251,253,249,276,225,232,235,253,253,254,238,229,213,209,198,187,178,211,186,192,193,242,227,254,253,269,230,260,239,238,236,275,288,282,280,289,246,205,250,254,255,279,287,268,265,264,248,209,168,191,197,207,214,215,189,169,151,141,149
waveOut,3,3,55,57,56,57,43,40,38,37,34,29,30,31,36,37,39,38,38,36,33,29,31,33,36,40,60,70,78,87,91,83,87,111,126,171,184,194,204,205,178,173,179,154,151,152,154,144,157,148,160,158,166,153,165,150,159,150,154,143,135,113,123,131,137,149,153,143,135,141,143,144,132,128,118,122,134,150,162,159,155,190,184,188,188,188,137,140,126,116,117,120,137,181,192,196,205,193,156,162,157,147,163,159,141,134,132,95,82,81,68,72,72,75,66,70,66,65,61,162,172,177,184,292,289,369,406,430,379,370,297,264,244,225,204,183,146,98,136,119,138,136,149,137,140,133,135,120,102,98,85,83,92,80,79,84,93,91
waveOut,3,4,71,74,86,77,80,84,78,67,62,58,56,51,86,90,94,93,93,68,66,63,61,60,53,66,67,82,86,98,91,99,96,100,121,142,171,268,276,277,282,323,265,291,314,368,331,327,301,289,210,205,227,248,230,305,351,406,417,425,382,347,301,300,313,312,313,294,309,288,314,413,404,381,428,415,343,350,354,300,289,253,245,224,219,226,233,241,236,252,249,263,257,259,257,303,275,262,265,252,205,204,212,199,181,175,169,160,159,158,106,129,113,137,135,139,116,115,75,88,87,93,118,123,123,118,114,89,84,78,76,76,97,106
waveOut,3,5,79,83,94,87,83,90,84,86,85,84,65,64,35,53,55,64,70,70,73,70,63,59,59,36,34,31,30,32,38,68,79,88,134,170,200,217,224,202,178,137,111,95,105,108,108,122,133,137,143,166,188,193,212,212,205,200,216,213,234,248,250,257,257,248,248,252,240,242,246,293,305,316,307,302,254,224,205,204,203,197,187,185,174,174,169,170,161,176,183,182,189,200,193,217,243,248,257,261,230,208,203,181,184,181,157,152,158,152,164,169,245,240,273,334,401,406,417,423,386,334,300,282,246,220,214,205,244,239,242,252,241,212,215,217,228,216,202,186,179,152,169,195,198,212,204,322,312
waveOut,3,6,223,357,400,423,445,456,454,421,426,425,452,385,458,548,532,538,569,542,493,549,532,486,464,449,417,444,470,471,447,405,427,499,492,471,483,461,360,366,364,352,318,306,295,274,281,286,308,317,381,398,377,349,350,307,312,310,319,284,266,215,198,189,232,221,219,212,215,177,177,173,190,220,259,302,329,326,306,271,213,163,144,106,90,77,69,107,105,107,104,103,59,51,45,44,71,136,247,293,338,353,347,304,266,220,194,176,165,154,162,156,152,163,164,144,178,178,145,145,155
waveOut,3,7,82,83,95,102,97,99,93,81,87,107,109,115,115,124,126,129,129,131,109,87,84,77,73,72,56,50,57,78,88,90,92,102,128,138,148,170,203,189,191,209,205,183,198,221,206,208,200,182,144,166,164,186,200,250,258,295,315,364,370,370,394,424,387,362,354,302,225,231,227,213,196,191,171,188,186,186,204,247,253,257,271,268,224,189,205,182,163,162,163,156,163,189,185,202,201,232,259,292,286,283,252,233,218,228,248,270,328,366,446,645,684,691,809,895,779,754,810,721,631,655,704,616,567,503,524,502,507,498,477,418,362,340,361,374,367,381,369,341,318,303,288,304,334,339,321,332,329,297,285,289,271,249,244,257,239,190,183,211,201,201,190,177,164,170,168,172,167,132,116,153,156,159,163,175,150,165,329,361,393,403,402,388,380,353,338,345,248,211,189,188,186,143,161,154,148
waveOut,3,8,92,79,77,82,100,117,121,115,108,108,103,124,129,128,112,104,75,63,60,75,73,85,95,96,85,91,135,134,134,135,133,87,89,90,99,108,120,136,141,144,139,133,115,115,117,118,109,118,114,107,106,114,121,133,142,210,224,216,211,215,167,150,171,173,162,148,160,153,176,175,188,182,173,158,164,158,157,153,143,151,153,178,185,195,192,197,166,195,222,270,273,272,250,259,206,190,205,198,139,141,141,126,137,129,116,108,113,185,196,198,198,195,127,121,123,126,130,135,134,127,122,115,95,86,83,87,79,99,105,110,115,150,152,150,152,145,107,116,164,161,169,170,152,121,172,185,184,186,172,144,210,221,222,220,208,122,102,97,91,93
waveOut,3,9,60,61,60,63,61,66,77,68,61,59,69,58,54,54,53,32,29,29,58,59,60,62,62,37,46,65,72,101,111,111,101,144,154,157,164,180,196,195,203,245,274,252,247,366,425,433,444,459,385,339,416,425,421,446,444,351,386,384,364,331,325,269,264,249,260,260,282,290,275,279,278,473,524,546,578,613,470,433,429,396,363,362,391,380,372,363,341,265,264,267,277,284,278,247,233,288,307,313,315,384,364,405,426,446,383,342,271,223,219,222,234,262,263,275,313,341,325,338,346,311,298,293,289,275,323,304,308,306,280,216,194,180,169,185,208,240,270,304,325,310,343,343,383,354,364,333,355,289
waveIn,3,0,103,88,89,89,81,61,53,53,47,42,43,42,44,49,51,53,51,44,37,42,136,168,187,249,360,410,582,658,692,865,868,857,850,841,715,717,776,791,880,881,928,848,814,770,828,888,880,926,891,828,703,673,710,800,897,900,942,962,923,854,894,964,956,952,911,875,788,716,763,810,823,814,852,843,822,861,892,871,873,865,824,810,791,748,757,761,768,760,749,684,637,542,461,343,288,228,166,143,108,90,84,76,65,58,57,51,44,42,53,71,75,103,112,133,129,132,126,136,116,118,118,103,110,132,133,134
waveIn,3,1,156,162,159,152,145,126,125,111,120,128,170,177,200,224,239,224,238,348,485,548,609,625,681,654,642,641,755,731,698,710,732,757,770,788,796,881,825,877,945,988,907,877,825,800,712,742,736,699,748,783,756,788,818,829,819,904,942,988,947,930,826,778,735,751,808,824,898,877,853,855,864,792,794,768,743,716,670,652,595,585,659,740,732,948,999,1008,1049,1071,966,930,889,781,781,687,699,751,757,705,707,658,565,577,601,672,669,708,711,679,605,622,558,539,507,463,385,354,211,203,184,136,79,69,55,48,42,33,33,35,36,36,36,40,36,36,38,48,49,49,55,53,44,39,38,30,28,35,33,34,37,37,31,33,37,35,36,37,36
waveIn,3,2,47,47,47,55,55,45,47,57,58,70,73,82,101,106,123,170,230,306,326,390,503,536,550,619,661,639,671,654,669,691,777,778,852,853,930,898,919,909,931,831,847,808,821,745,757,723,790,759,852,833,856,805,786,712,692,626,627,670,653,670,684,702,710,783,884,909,929,912,882,833,811,790,822,866,876,880,871,808,868,815,833,825,921,819,929,917,930,861,898,800,813,829,836,785,826,791,762,734,703,689,765,836,854,889,814,725,615,619,559,695,701,728,735,787,664,717,752,746,725,794,787,814,779,825,805,769,668,668,588,502,434,372,288,269,287,305,305,299,239,198,138,121,113,61,55,44,42,38,34,32,32,31,32,34,35,37,37,36,33,33,35,35,33,35,34,31,30,29,29,28,36,35,35,36,36,29,50,64,65,70,84,79,77,107,133,135,138
waveIn,3,3,69,69,64,50,41,42,41,38,58,68,68,71,75,57,46,48,67,63,62,62,62,36,36,76,78,77,78,78,48,46,46,45,45,41,61,65,67,89,122,322,395,592,658,689,760,790,739,733,845,810,821,818,875,831,850,838,794,734,696,675,666,762,750,777,751,753,729,727,689,689,717,720,782,824,896,889,839,831,810,705,687,771,718,714,733,712,657,729,745,730,748,730,639,726,737,854,842,899,802,910,852,893,941,951,887,856,860,773,809,788,742,676,688,587,568,662,645,651,703,746,701,767,760,744,765,783,791,767,736,633,604,513,457,451,454,349,310,304,254,129,112,86,71,60,42,36,31,27,26,25,24,24,28,30,29,37,39,34,35,35,31,34,35,33,32,29,23,27,27,30,31,31,28,28,26,25,24,41
waveIn,3,4
waveIn,3,5,52,32,28,27,52,56,57,58,59,38,40,51,56,55,56,51,37,27,25,25,23,24,39,52,57,64,92,253,402,526,583,598,660,631,618,665,758,777,824,838,855,845,783,779,797,814,812,827,855,922,920,985,1069,1044,944,892,770,702,722,757,779,799,808,858,848,818,846,803,724,690,680,697,732,766,797,839,821,802,762,754,761,806,767,803,876,849,881,918,887,832,864,754,705,682,632,592,555,516,490,453,385,408,398,353,393,350,275,268,244,101,85,66,53,48,43,40,43,44,39,43,44,42,38,40,39,39,56,57,57,59,57,40,39,38,31,36,34,38,52,54,55,61,65,60,60
waveIn,3,6,101,110,143,152,184,190,238,240,289,294,332,313,333,411,515,545,689,711,733,713,761,661,744,786,763,783,817,813,780,837,870,894,837,886,864,816,831,930,911,958,971,931,851,828,870,871,959,967,1002,930,904,802,908,920,946,928,955,870,859,842,811,764,764,689,646,706,714,661,644,597,528,497,449,421,463,452,419,401,326,225,181,170,151,138,120,74,68,61,54,41,31,31,36,54,59,62,65,63,55,50,47,42,40,30,29,28,27,28,28,30,29,31,30,30,28,28,29,27,30,29,34,32,32,29,30,26,28,28,26,24,23,21
waveIn,3,7,67,71,71,70,71,67,66,78,84,83,78,73,63,80,216,404,509,712,843,907,1023,1088,1160,1190,1231,1151,1094,969,860,836,856,892,935,964,870,890,908,887,903,981,1015,991,969,972,891,852,840,856,852,944,941,924,925,907,896,808,831,916,1027,1003,1045,1091,1002,937,964,943,863,827,859,851,850,888,890,849,794,786,760,741,659,644,627,648,638,635,677,675,598,625,590,562,548,518,483,451,360,291,273,188,174,162,111,97,70,53,53,45,37,43,45,47,50,50,46,45,38,38,33,34,30,36,31,35,33,34,31,31,29,28,28,24,23,22
waveIn,3,8,25,35,48,54,55,55,49,34,47,50,80,94,128,138,158,204,239,334,381,503,535,563,535,645,687,811,818,878,943,998,948,972,1051,1019,1076,1071,1044,979,884,815,812,841,821,880,795,788,800,747,728,762,778,779,838,855,781,872,879,843,845,836,755,862,919,923,1002,992,949,941,918,853,920,886,837,815,878,817,752,798,852,786,746,841,799,748,770,744,652,647,646,628,614,661,659,609,561,548,428,381,372,358,345,338,298,274,225,188,127,97,73,60,48,42,39,34,33,35,38,31,30,35,35,34,34,37,32,33,32,34,32,32,33,34,35,39,41,39,39,38,34,29,31,29,28,26,25,23,23,23,27
waveIn,3,9,23,24,22,21,22,21,21,22,22,26,39,111,150,178,184,198,336,470,587,639,683,699,761,684,655,672,692,594,602,621,596,531,504,497,540,637,729,757,843,900,899,898,933,893,830,769,723,679,696,775,784,806,846,897,873,897,909,865,867,822,812,793,789,720,754,816,790,860,969,1005,1040,1040,990,936,925,816,818,859,780,698,697,650,583,585,624,597,609,618,588,571,552,548,482,455,352,317,229,196,180,164,144,123,89,76,66,50,42,39,39,41,43,45,50,51,52,48,53,48,48,47,51,42,39,36,31,27,27,25,27,28,28,27,33,32,33
doubleTap,3,0,23,23,23,29,30,30,30,31,29,30,28,36,35,32,31,38,45,51,53,55,101,167,169,178,179,185,150,155,151,183,190,255,345,404,402,408,366,289,251,420,505,586,609,606,513,446,345,335,312,315,282,270,227,221,199,168,161,171,169,160,171,216,225,232,232,235,218,199,187,181,184,161,160,155,138,167,178,180,183,198,176,177,169,187,195,190,167,165,140,97,71,95,100,99,153,162,156,156,175,148,154
doubleTap,3,1,113,100,100,105,114,104,100,97,87,85,68,84,84,82,71,67,43,42,85,94,97,102,103,98,113,128,126,153,168,356,441,478,494,513,435,347,311,446,539,584,599,596,498,375,274,245,234,211,229,210,201,199,202,172,168,184,193,181,176,176,178,174,239,227,221,235,235,193,189,194,156,155,124,124,120,123,123,144,177,179,182,192,176,221,220,233,240,234,160,162,133,98,97,102,97,110,120
doubleTap,3,2,90,98,105,116,116,132,128,128,116,116,105,103,126,132,137,131,122,92,82,98,92,101,110,134,150,184,197,199,191,170,148,132,125,136,152,248,463,594,643,690,675,564,443,371,268,474,586,649,697,722,621,515,419,394,349,291,273,280,181,214,244,245,234,231,202,185,186,207,218,213,195,193,184,176,193,210,215,200,192,173,161,139,157,147,146,218,222,213,217,229,193,193,189,187,163,126,122,131,136,137,129,119,146,143,141,141,146,96,99,118,128,129,140,199,450,597,642,647,647,518,334,320,508,618,664,676,650,529,422,325,312,293,315,241,245,234,232,145,147,180,182,186,190,204,215,237,245,250,238,195,161,141,135,189,208,211,214,227,195,194,186,218,213,208,238,241,210,185,207,162,175,177,181,168,153
doubleTap,3,3,161,160,177,176,170,138,163,156,152,154,146,162,160,162,168,175,118,114,123,146,140,143,152,162,180,185,182,170,148,160,166,167,173,175,150,153,161,163,180,205,320,485,569,575,580,536,400,269,280,437,614,684,697,700,616,448,340,320,318,286,249,275,262,215,208,207,148,159,183,204,224,242,244,232,232,276,256,257,266,244,194,195,206,205,209,195,227,205,195,203,215,186,189,202,193
doubleTap,3,4,162,161,187,197,190,194,185,161,142,130,136,141,142,146,172,498,605,804,834,836,696,614,327,242,313,432,561,646,676,695,688,614,525,492,419,304,238,238,226,213,221,233,223,244,249,255,226,211,206,217,236,242,267,246,228,183,205,190,196,196,194,244,234,229,223
doubleTap,3,5,131,124,123,123,132,129,152,168,171,154,164,201,213,205,253,330,530,602,638,641,610,456,348,286,511,679,712,797,812,687,523,459,317,321,322,405,472,457,427,416,351,243,304,306,293,264,269,181,175,176,184,181,193,181,204,186,191,185,192,168,194,184,181,196,194,166,189,192,164,160,164,165,185,183,210
doubleTap,3,6,87,144,154,160,148,154,119,112,105,106,95,104,116,128,130,165,206,202,205,220,211,174,171,324,462,553,639,666,617,545,463,341,355,537,777,852,874,853,749,485,342,270,300,291,278,249,243,190,291,274,277,303,298,193,189,215,187,185,178,182,185,177,188,190,203,163,167,158,167,181,184,215,221,226,218,211,208,273,574,770,811,817,831,678,463,400,379,529,610,664,670,672,523,410,279,246,227,193,155,140,146,144,197,199,200,202,201,170,167,174,175,170,161,173,205,199,209,228,214,175,174,181,138,130,128,139,108,101,118,140,181,181,188,179,199,153,159,160,211,399,555,617,638,644,542,392,302,254,298,377,468,479,481,434,421,317,295,308,297,219,209,194,176,187,183,204,213,221,225,218,198,203,194,171,183,177,165,168,189,193,187,191,175,174,178,178,162,171,162,162,185,198,196,198,205,190,183,183,205,171,171,175,223,255,395,405,415,395,387,271,258,237,251,377,483,525,573,569,478,358,290,179,267,429,585,609,716,708,661,531,512,350,307,210,213,254,258,242,253,304,303
doubleTap,3,7,176,185,187,188,158,163,149,214,225,219,216,246,193,188,169,164,113,126,97,97,111,127,124,130,204,443,575,684,710,696,594,469,281,224,324,508,579,610,623,590,447,372,317,287,249,230,194,217,214,214,183,174,149,146,141,134,167,167,167,184,200,191,195,198,190,163,169,167,163,163,167,143,133,136,138,117,134,138,166,163
doubleTap,3,8,160,163,159,155,197,196,188,177,176,129,179,198,190,198,221,204,263,292,286,273,259,182,136,172,440,726,874,915,931,865,656,452,362,307,349,401,392,405,417,319,221,207,170,125,139,121,117,116,116,71,69,117,174,190,192,197,179,143,130,142,168,168,206,211,207,191,192,162,157,152,147,165,173,197,222,220,282,327,328,364,441,459,427,426,399,325
doubleTap,3,9,191,220,192,188,199,195,165,174,175,174,165,185,172,164,190,187,176,184,177,153,181,218,220,287,296,285,288,301,247,223,258,543,722,791,830,833,688,490,378,290,294,506,610,719,718,714,573,523,358,371,347,351,255,236,221,212,163,230,222,227,226,228,182,197,184,178,212,200,192,204,215,178,159,155,175,171,173,173,183,154,162,156,143,126,131,157,163,171
fist,4,0,21,22,20,19,22,21,23,23,24,22,22,25,25,24,23,25,21,20,19,20,19,20,20,24,24,25,23,23,19,22,20,20,21,20,19,21,20,19,26,25,26,27,28,30,35,37,40,41,47,54,68,79,87,98,130,177,277,355,373,505,497,488,454,523,520,585,609,645,764,851,935,1036,1168,1152,1160,1221,1321,1435,1519,1465,1456,1395,1319,1285,1342,1448,1433,1325,1311,1276,1021,901,914,721,599,564,519,306,273,241,233,199,168,225,230,212,209,205,140,115,88,64,62,92,97,99,99,113,85,76,71,71,40,35,31,35,33,32,29,28,27,30,34,37,47
fist,4,1,56,58,61,74,84,93,96,96,91,80,66,72,133,150,154,385,404,404,417,433,268,269,289,323,332,355,374,367,343,473,676,754,836,985,1040,1091,1219,1258,1280,1406,1330,1308,1442,1388,1319,1416,1454,1359,1445,1417,1416,1323,1368,1290,1208,1079,1272,1190,1233,1239,1227,939,821,610,525,552,561,569,572,576,478,396,349,295,258,245,297,271,357,387,376,334,402,366,348,352,351,271,215,193,175
fist,4,2,21,20,18,19,19,21,21,20,20,21,19,19,20,22,20,23,24,24,22,23,21,20,21,20,20,19,20,19,22,22,23,21,24,23,22,22,23,20,21,22,20,20,19,18,17,21,19,20,21,23,22,21,23,23,23,23,23,22,22,22,20,21,21,22,22,24,24,24,24,23,20,19,17,17,19,20,19,25,29,31,38,48,58,73,76,100,159,260,282,397,420,501,558,696,769,932,1020,1017,1081,1145,1233,1397,1508,1491,1554,1593,1402,1366,1358,1401,1311,1397,1470,1491,1362,1304,1306,1260,1237,1163,1121,1006,944,875,885,896,925,923,972,944,863,801,620,418,366,353,252,181,140,91,61,51,44,37,28,23,24,22,20,23,21,19,20,21,19,18,22,20,19
fist,4,3,18,20,21,21,21,22,21,20,21,24,21,23,22,22,20,20,18,21,23,22,22,23,22,18,19,20,20,19,23,32,35,40,44,45,61,73,95,241,252,262,283,311,285,372,649,877,973,1098,1183,1255,1212,1233,1156,1131,1001,1006,1069,1186,1224,1315,1301,1262,1300,1272,1202,1198,1208,1145,1127,1177,1220,1126,1099,1150,1182,1287,1338,1314,1316,1257,1138,1083,1287,1289,1281,1256,1374,1163,1147,1115,1069,889,848,768,692,635,677,641,521,446,401,246,191,179,160,107,74,42,37,37,32,27,23,23,21,21,20,19,21,21,22,20,21,20,20
fist,4,4,19,21,20,21,24,29,45,134,139,142,146,143,74,73,68,56,54,47,36,30,31,38,47,52,62,71,84,149,190,211,240,246,266,281,281,30,31,433,454,554,709,927,1095,1202,1351,1366,1369,1288,1323,1287,1293,1258,1223,1140,1227,1292,1226,1264,1236,1255,1199,1255,1330,1448,1378,1436,1457,1389,1418,1392,1301,1353,1404,1284,1326,1341,1273,1261,1299,1258,1288,1305,1301,1245,1151,1106,1012,833,763,681,649,586,576,565,545,327,226,218,172,178,288,303,305,305,280,159,112,89,73,54,42,38,29,24,23,23,23,21,23,21,23,26,28,28,29,29
fist,4,5,19,20,29,32,33,35,35,36,35,55,60,67,66,67,52,51,43,40,39,50,46,49,70,72,87,98,265,272,430,456,474,521,611,637,893,1006,1087,1166,1258,1237,1234,1324,1320,1405,1481,1478,1411,1366,1322,1220,1325,1500,1649,1606,1570,1491,1325,1256,1266,1346,1296,1397,1399,1408,1409,1454,1448,1409,1393,1342,1345,1226,1233,1144,1040,986,887,710,678,642,551,562,540,512,643,672,595,592,561,405,326,318,251,308,295,289,270,266,135,126,111,91,78,51,47,40,36,30
fist,4,6,20,20,20,20,23,28,31,31,33,35,36,38,40,42,45,66,124,170,191,253,271,321,367,407,388,391,418,507,501,594,768,955,988,1087,1145,1175,1151,1208,1218,1260,1246,1213,1186,1203,1251,1221,1229,1328,1274,1203,1202,1191,1071,1154,1127,1116,1171,1185,1095,1026,975,890,793,865,864,942,858,924,813,791,649,610,386,330,289,253,243,230,160,89,70,57,49,47,36,32,29,26,27,29,30,29,32,30,29,29,29,25,27,26,26,27,28,28
fist,4,7,24,24,22,23,24,24,24,23,23,21,21,19,24,29,29,30,32,34,43,48,53,60,69,68,83,227,253,260,311,356,338,641,771,863,1052,1203,1249,1258,1282,1248,1250,1245,1348,1409,1425,1467,1452,1459,1401,1445,1507,1469,1459,1493,1465,1420,1439,1380,1342,1389,1313,1414,1407,1421,1306,1175,1006,904,735,665,772,662,629,701,689,552,514,480,362,202,179,140,114,90,74,69,66,64,54,30,25,27,22,21,22,23,21,22
fist,4,8,17,17,17,19,16,19,18,19,19,21,20,22,21,22,23,23,21,21,20,19,20,19,19,20,18,19,19,22,20,22,29,35,40,53,76,101,111,125,140,173,324,332,353,373,487,484,656,791,967,1028,1077,1069,1063,1111,1089,1156,1281,1303,1395,1468,1449,1391,1362,1303,1204,1271,1279,1369,1429,1455,1409,1383,1276,1063,1111,1147,1165,1237,1207,1088,901,774,670,695,698,723,680,621,540,492,451,404,304,180,162,107,91,72,51,43,34,30,28,25,23,23,22,21,22,21
fist,4,9,20,21,20,20,19,19,18,20,19,19,17,20,18,20,26,29,30,32,33,38,40,44,46,48,48,59,59,79,249,324,354,366,394,347,491,754,850,876,908,907,746,687,835,934,928,1027,1211,1230,1374,1391,1366,1299,1398,1293,1415,1392,1423,1381,1469,1431,1503,1485,1463,1410,1317,1379,1415,1373,1308,1333,1183,1010,868,709,533,372,284,254,311,358,359,347,318,231,105,68,61,48,33,30,27,26,24,22,21,21,22,22,23,23,25,24,25,24,24,23,23,23
fingersSpread,4,0,21,21,21,21,20,19,19,18,19,18,19,23,37,63,96,142,147,151,159,255,264,271,287,299,301,289,300,315,334,299,305,290,282,304,279,297,384,379,355,391,391,317,313,369,442,494,512,524,497,421,424,495,497,474,464,407,305,276,341,333,346,329,356,290,290,229,210,140,122,66,62,53,51,48,42,35,29,28,29,28,28,30,28,25,23,23,22,23,23,22,21,20,19,18
fingersSpread,4,1,52,110,121,127,140,168,167,170,176,188,181,261,271,283,292,296,264,270,320,322,406,420,408,376,386,346,332,336,325,346,318,349,368,465,504,560,550,603,547,504,443,435,360,424,449,476,478,468,432,407,405,436,477,442,485,522,487,451,548,494,423,401,482,416,421,437,471,456,455,446,421,402,384,336,330,314,280,147,111,85,68,49,44,38,38,39,35,31,30,27,22,23,25,24,22,23,22,21,21,24,25,23
fingersSpread,4,2,20,17,18,19,20,19,21,23,20,19,21,21,19,20,21,22,21,21,22,22,21,19,19,17,18,18,20,18,20,30,136,145,175,279,295,365,383,380,322,354,308,331,353,372,422,412,385,403,416,369,382,431,409,394,480,452,433,430,456,369,387,409,412,416,407,446,419,452,475,476,467,462,455,433,421,405,439,410,361,411,419,401,392,480,436,425,402,488,437,436,463,480,406,404,411,366,326,306,238,186,123,105,77,69,63,44,32,30,29,27,28,24,24,22,21,19,22,22,21,21,23,25,24,25,25,27,25
fingersSpread,4,3,22,23,23,22,22,22,22,22,21,20,20,21,20,21,22,20,18,20,21,19,20,24,22,24,28,29,27,28,32,116,193,259,281,287,293,266,287,358,361,343,345,308,356,433,444,518,574,530,596,618,581,522,540,507,547,575,639,677,613,591,642,735,736,801,861,805,750,760,759,739,756,771,795,827,773,830,785,726,602,582,456,373,325,313,298,280,255,158,155,139,79,56,41,36,33,28,26,27,23,21,20,19,19,19,18,20,20,18,21,22,23,24,24,22,25,24,23,23,25,23,24,25
fingersSpread,4,4,20,21,23,21,24,24,24,22,21,19,20,22,20,21,22,23,23,24,24,22,22,22,22,23,42,169,193,201,205,204,149,143,221,232,245,262,290,292,321,331,312,306,363,345,394,507,519,482,494,550,463,462,451,491,395,424,517,509,481,526,558,601,657,682,691,732,734,736,775,746,771,689,645,583,590,559,528,547,532,534,433,473,422,395,344,304,201,189,163,127,74,49,46,43,37,33,32,29,25,23,21,22,22,20,19,20,19,17,18,19
fingersSpread,4,5,21,22,20,22,24,22,23,22,22,20,21,18,19,18,19,18,19,19,19,20,20,20,21,22,25,24,24,23,23,19,19,21,24,56,108,114,163,170,188,179,228,230,236,273,320,302,302,360,369,361,378,477,496,521,511,534,535,580,640,720,759,697,634,604,595,649,726,812,843,807,743,749,709,672,669,666,741,723,667,649,715,605,571,561,552,415,322,263,254,222,160,99,90,66,60,45,37,35,31,28,26,25,24,24,23,21,20,20,21,22,21,21,21,20,23,23,23,23,26,22
fingersSpread,4,6,18,19,21,22,21,20,20,18,17,17,16,17,18,21,29,30,53,58,109,111,113,107,108,58,111,140,151,207,223,221,246,265,236,230,247,386,401,449,467,467,348,335,308,284,282,294,314,348,589,639,674,732,843,802,803,841,793,693,637,661,597,597,609,575,563,628,649,606,658,655,591,568,608,543,500,489,480,406,377,420,386,365,337,310,131,115,72,63,54,42,41,37,30,28,26,27,22,20,20,21,21,22,22,21,21,21,20,19,20,19,17,17,20,19,20,22,22,20,21,21,20,21,22,24,24,24,24,23,22,20,21,19,22,22,22
fingersSpread,4,7,43,23,24,23,22,22,21,19,19,21,20,24,24,23,22,22,21,20,19,21,22,21,21,25,26,47,75,93,149,183,210,276,322,312,339,361,359,474,483,508,508,536,447,504,494,530,520,533,592,591,663,682,686,619,621,517,594,619,692,701,771,673,642,582,553,491,481,466,434,448,391,465,452,430,394,357,236,178,103,70,63,43,41,38,28,24,21,18,22,21,20,20,22,18,17,19,20,19,21,24,22,22,24,24,23,24
fingersSpread,4,8,18,19,20,20,21,22,22,22,23,23,22,21,21,19,19,19,19,20,19,18,18,19,18,19,19,17,17,18,21,22,22,22,21,21,22,21,22,21,20,17,21,25,26,26,26,34,30,32,33,36,33,34,34,38,119,128,164,244,264,312,324,317,347,383,372,386,430,441,415,458,454,530,531,702,684,690,629,614,703,704,737,728,717,527,541,512,546,571,529,498,512,500,460,415,387,320,242,206,157,130,87,72,62,51,40,32,31,24,22,19,21,18,21,21,22,21,21,20,20,21,21,22,23,23,21,25,24,23,27,28,24,26,27,23,22,22,24,22
fingersSpread,4,9,23,21,22,21,22,20,21,18,19,18,18,18,21,22,22,22,23,20,19,18,20,17,18,20,20,18,21,19,24,47,51,74,76,86,130,203,317,392,416,415,460,418,411,414,441,450,467,491,576,705,720,848,821,839,801,801,732,756,686,609,627,533,634,634,685,710,756,661,673,676,652,652,620,586,548,434,356,366,377,364,376,352,353,321,231,200,165,118,109,66,52,43,38,38,31,27,25,21,20,22,20,22,22,23,21,22,22,20,20,20,20,19,22,20,21
waveOut,4,0,22,21,22,21,21,22,22,22,25,25,24,25,27,26,26,28,27,25,29,35,39,41,43,40,45,43,44,64,73,72,72,28,27,83,86,85,93,104,106,115,111,110,142,142,142,150,146,118,131,138,135,137,127,116,100,92,87,92,82,85,82,85,75,73,58,54,45,43,36,34,32,26,23,24,23,23,22,75,73,58,21,19,18,18,18,19,17,19,20,21,22,22,22,20,19,19,18,18
waveOut,4,1,21,24,24,22,24,24,22,22,22,20,19,20,19,20,19,21,20,22,23,22,24,24,25,25,26,27,31,28,29,32,35,38,44,50,55,54,65,76,79,84,89,91,85,92,86,85,83,85,83,93,108,110,116,115,118,105,111,104,102,92,90,81,74,67,66,67,55,53,51,47,37,32,32,29,27,26,23,25,19,24,25,25,30,30,32,33,33,29,29,22,22,23,24,26,26
waveOut,4,2,22,24,22,22,22,23,21,20,21,20,20,21,22,23,22,22,22,22,20,22,22,21,22,22,20,20,21,19,18,17,18,20,19,19,24,24,23,27,32,29,31,37,38,38,42,43,39,41,45,60,63,69,72,81,76,102,111,112,113,120,107,104,102,92,77,70,61,59,59,59,50,43,47,47,46,46,45,47,43,45,44,44,33,34,28,24,20,23,21,23,24,25,23,22,19,19,20,21,22,22,23,21,21,20,21,20,20,19,19,20,23,26,26,27,28,26,26,26,27,25,26,24
waveOut,4,3,18,19,22,20,20,22,22,19,21,19,20,20,19,19,19,19,20,18,20,19,17,18,20,19,20,21,20,20,18,18,19,18,16,17,18,17,16,17,19,20,23,24,25,24,23,23,25,28,29,29,40,42,45,51,55,56,58,61,69,72,73,73,83,76,82,98,106,117,130,138,142,149,138,143,139,128,121,116,108,98,90,80,80,63,56,55,84,97,100,117,119,130,143,147,138,136,108,123,124,131,145,148,112,102,87,59,46,41,34,24,22,20,20,20,19,21,23,23,23,25,23,21,21
waveOut,4,4,21,21,22,22,21,23,23,23,22,22,20,20,20,20,20,20,20,19,18,20,20,20,22,24,21,25,27,24,23,24,24,23,25,28,32,29,31,32,33,37,38,40,41,39,50,52,62,68,72,92,95,91,89,95,85,84,87,88,81,72,67,61,63,65,55,54,53,42,31,31,31,29,33,33,31,31,31,28,28,66,94,100,101,105,96,78,71,71,65,52,36,32,28,25,22,22,26,29,29,29,28,24,22,24,22,22
waveOut,4,5,21,22,23,22,22,22,21,18,18,18,19,20,22,22,22,23,24,22,25,28,28,27,28,26,28,28,30,29,29,26,33,33,36,38,42,40,42,48,51,61,65,67,94,101,104,110,123,104,108,104,104,95,101,94,120,126,126,129,132,111,97,90,77,62,73,74,76,74,72,49,41,31,37,44,61,101,106,107,104,103,74,68,66,66,53,39,35,29,26,25,21,22,22,22,21,20,20,20,20,24,26,24,24,24,20,18,18
waveOut,4,6,19,19,18,18,19,19,20,23,22,22,23,24,21,21,21,20,21,24,24,23,24,22,20,21,20,20,21,21,21,22,22,21,20,21,20,21,22,21,20,20,18,20,22,22,24,25,24,24,24,22,23,24,24,30,40,40,42,43,45,43,47,50,53,50,50,61,61,59,72,75,66,72,93,122,137,143,140,129,100,77,69,70,71,71,74,71,72,71,63,57,57,60,58,61,60,58,49,49,43,40,36,35,28,27,25,25,26,31,35,37,42,43,40,38,72,80,83,85,112,104,96,94,93,58,37,34,30,26,23,22,21,23,27,23,25,25,23,19,19,16,18,19,19,20,21,20,19,21,19,20,19,19
waveOut,4,7,20,23,24,21,21,21,18,17,19,19,20,21,20,19,19,18,19,20,19,20,20,19,21,23,21,23,22,23,21,22,24,24,23,24,25,25,26,25,26,25,24,27,28,29,29,27,26,26,28,30,39,38,38,36,37,29,29,32,33,33,41,47,55,58,63,60,54,51,60,61,69,73,77,73,68,61,59,55,53,54,53,52,45,39,34,31,29,24,24,26,26,24,25,25,22,31,32,31,32,33,24,23,24,23,22,21,20,19,20,20,22,22,23,25,25,24,25,25,23,23,24,22,22,20,22,20,20
waveOut,4,8,21,21,22,22,19,20,19,20,20,20,19,21,20,23,24,27,25,24,23,23,19,20,20,20,19,18,17,20,18,18,20,24,26,27,27,26,27,25,28,29,32,40,43,46,47,55,54,61,64,82,91,107,143,165,177,181,183,163,158,140,133,119,126,107,103,99,98,83,79,76,77,78,67,68,70,118,142,216,219,227,224,223,161,158,149,117,85,64,54,39,32,30,28,27,28,27,25,24,24,19,19,21,22,24,25,26,25,23,22,21,21,21
waveOut,4,9,20,20,20,21,18,21,21,19,21,23,21,22,23,22,20,22,22,21,21,20,18,18,18,18,18,19,18,19,19,21,20,22,21,21,19,21,18,20,21,24,24,24,22,22,20,22,24,32,39,43,45,55,61,72,87,91,90,87,96,106,108,118,134,142,133,133,131,145,128,125,125,120,108,106,104,102,102,69,75,72,68,65,64,53,49,43,32,26,25,28,26,24,30,31,28,28,29,25,22,20,20,19,19,18,19,19,19,18,19,18,21,20,22,21,21,18,18,17,17,19,20,22,25,25,24,25
waveIn,4,0,23,23,23,19,19,17,19,19,19,21,21,19,19,21,20,21,21,22,31,47,49,50,82,90,123,124,149,150,208,266,280,283,298,284,230,271,334,423,444,618,785,895,1019,1065,1064,1039,1016,998,998,230,271,1040,1068,1101,1083,985,971,954,845,913,946,903,851,906,800,731,669,579,407,304,259,222,195,156,123,87,80,51,45,34,29,28,25,22,24,25,24,24,24,23,23,23,22,25,23,22,23,23,19,20,23,22,21,22,22,19,20,23,22,21
waveIn,4,1,21,20,22,20,24,31,44,47,52,88,91,91,100,101,74,74,80,147,152,154,166,271,266,320,446,462,420,434,446,422,492,535,655,659,733,779,827,851,916,881,891,898,818,805,865,915,972,1015,1015,969,872,820,858,829,781,790,734,578,520,481,384,276,247,175,153,126,95,90,83,56,50,43,38,33,30,29,31,30,29,27,27,21,21,23,23,23,23,22,20,20,22,23,22,22,23,21,19,22,23,22,22,23,19,19,23,23
waveIn,4,2,21,23,23,23,22,24,27,25,26,27,26,22,22,22,19,18,18,19,20,20,23,23,22,21,22,21,21,20,19,19,20,19,21,22,21,19,20,19,18,20,19,19,18,18,17,17,15,19,21,20,20,22,30,181,203,207,209,218,213,226,229,233,265,247,274,304,324,425,481,499,528,584,568,547,538,538,548,525,557,608,654,748,833,875,869,940,856,815,810,808,747,750,730,693,653,551,486,393,251,192,142,110,85,70,52,39,38,33,27,27,27,26,25,25,25,24,23,23,23,21,20,20,18,18,16,17,16,15,16,16,16,19,20,19,19
waveIn,4,3,20,22,20,21,22,21,17,19,19,17,18,19,18,20,21,23,22,26,24,23,22,24,21,23,23,28,29,30,54,61,102,106,151,255,283,305,308,319,280,308,314,340,358,372,355,351,380,497,481,495,493,500,463,626,656,701,755,756,712,731,752,790,820,875,898,871,814,784,672,631,636,615,566,559,482,416,340,280,171,144,107,93,65,49,46,37,35,27,24,23,23,22,24,23,24,21,21,21,20,21,22,21,21,20,20,22,22,22,25,25,26,26,29,28,27,27,28,23,23,23
waveIn,4,4,22,22,23,21,20,20,20,21,20,22,21,21,22,22,20,20,21,17,24,28,35,42,56,56,58,57,56,45,42,39,38,43,44,61,65,69,85,121,153,270,376,589,696,829,871,964,941,981,1018,1070,1080,1084,1059,1059,1172,1209,1217,1194,1137,977,919,832,812,721,641,423,376,263,229,138,114,94,70,72,70,64,62,55,39,35,34,29,25,23,25,25,25,23,21,19,18,19,19,19,20,21,24,24,25,24,25,21,22,21,20
waveIn,4,5,17,19,19,20,21,20,19,19,18,18,18,19,19,19,21,22,22,22,24,23,22,22,22,20,19,20,25,24,25,26,27,24,26,26,27,30,53,59,62,66,65,55,52,58,63,67,89,124,246,328,350,353,345,401,416,541,620,759,855,945,1033,1079,1046,998,953,919,921,874,808,769,683,566,579,589,534,421,371,300,218,189,161,104,76,53,52,43,40,35,31,29,26,25,28,26,24,25,25,21,22,23,21,22,21,21,22,23,22,22,21,19,20,18,19,19,22,21,22
waveIn,4,6,21,22,22,23,23,20,19,21,21,20,21,21,17,16,17,19,20,20,20,22,20,19,20,20,19,18,19,18,18,19,18,18,20,21,21,22,21,20,21,21,23,24,39,42,63,70,78,106,145,180,232,289,292,293,298,261,205,192,223,240,318,362,496,544,572,649,747,761,857,958,1015,1018,1047,1106,1110,1059,1074,1068,988,1079,1094,1054,974,943,728,640,557,561,431,340,255,204,114,92,74,67,67,69,67,65,54,37,32,26,25,22,25,24,24,25,25,24,24,23,23,23,20,20,19,18,18,17,19,20,20,22,22,22,21
waveIn,4,7,24,23,23,21,22,22,24,22,23,21,22,19,21,20,20,21,23,22,21,21,20,19,21,22,23,23,22,22,22,20,19,21,20,20,20,22,21,22,25,28,28,61,75,82,85,86,92,99,225,270,275,274,289,216,180,180,205,184,192,261,290,380,445,490,574,762,1008,1092,1203,1257,1275,1136,1155,1061,1055,1059,1054,978,988,902,794,720,646,558,538,505,476,463,452,378,193,117,80,61,51,35,33,28,29,28,27,25,23,19,26,35,37,58,60,60,60,60,41,39,46,41,51,52,53,45,45,31,33,36,34,34
waveIn,4,8,22,23,22,23,22,22,21,21,20,19,21,20,21,19,20,19,21,20,22,20,22,20,21,21,20,18,19,17,22,22,22,22,23,18,17,18,19,18,17,19,18,19,21,22,23,22,20,19,19,18,20,20,20,21,21,23,23,22,22,21,19,17,18,21,81,143,215,240,249,272,301,368,368,372,384,377,326,454,599,711,790,829,899,1054,1051,1097,1124,1098,919,935,829,809,867,875,847,867,811,678,750,735,745,766,740,583,479,372,293,237,219,174,132,88,63,53,41,37,34,31,25,26,25,26,29,31,31,31,29,24,21,20,20,21,20,20,23,21,21,22
waveIn,4,9,19,21,19,20,21,22,20,20,21,20,21,22,22,21,22,23,22,33,50,62,64,69,66,64,56,89,103,110,106,118,116,115,111,121,120,106,97,101,144,169,270,312,353,397,478,689,764,877,971,1060,1054,1069,1023,1046,948,924,869,885,781,853,821,798,717,655,509,290,239,186,165,104,71,56,47,43,40,39,37,36,35,38,36,36,35,31,27,24,23,22,24,23,21,20,21,21,21,24,25,24,22,23,21,21,22,24,22,22,22
doubleTap,4,0,24,31,36,35,35,41,40,44,55,58,55,55,50,55,53,56,54,56,41,40,54,66,78,142,144,138,135,180,206,325,357,363,345,313,191,189,190,185,178,174,103,136,155,159,159,156,110,73,61,57,51,40,35,31,22,21,19,19,17,17,18,19,19,20,21,22,21,21,21,20,17,16,16,15,16,19,19,19,18,22,21,23,25,26,23,22,20,20,18,18,19,19,19,19,18,20,20,20,21,21
doubleTap,4,1,21,18,20,19,21,20,20,22,21,21,25,26,24,28,36,44,46,46,45,41,38,37,36,37,56,95,124,129,131,135,269,426,453,457,462,399,227,267,338,341,351,368,374,329,319,306,272,161,102,86,64,54,38,33,28,24,23,23,24,25,24,24,23,21,19,20,20,19,18,21,25,26,26,28,26,24,22,25,24,26,25,26,21,21,19,19,18,18,20,19,19
doubleTap,4,2,19,20,20,20,18,19,19,19,18,19,19,21,21,23,23,22,21,20,21,25,26,40,43,64,96,117,130,136,161,149,136,121,122,122,250,262,279,279,275,252,314,312,316,305,244,139,133,231,242,237,237,223,107,103,165,169,170,166,152,73,54,46,40,32,25,23,23,22,20,19,20,18,16,18,20,18,20,23,22,20,22,23,21,21,21,20,20,19,20,19,19,23,23,24,24,24,21,19,21,22,22,20,23,20,20,21,22,19,20,18
doubleTap,4,3,39,23,20,20,19,19,18,19,18,18,22,22,22,23,25,21,21,23,23,21,23,23,22,26,28,30,34,45,145,159,164,166,164,91,64,68,162,182,183,183,178,156,346,381,396,406,391,240,291,342,351,353,351,283,220,203,194,181,151,100,57,42,37,33,26,24,24,23,25,24,22,22,21,19,18,21,19,20,21,22,20,21,22,21,26,29,29,29,29,24,21,20,19,20,22,22,22,21,22,19,20,23,24,23,23,22
doubleTap,4,4,20,22,23,21,20,20,17,18,18,17,20,18,17,19,20,18,21,20,23,24,24,24,30,74,174,178,187,189,180,108,163,241,259,269,275,307,319,341,337,335,298,243,214,223,211,185,150,112,71,65,56,45,31,26,21,20,19,18,18,20,19,19,19,18,20,20,21,21,22,20,19,18,22,22,22,22,22,25,26,29,27,28,25,23,21,23,22,23,23,21,20,20,21,20,20,20,20,19,19,20,20,21,21,22,20,22,21,20,21,21,20
doubleTap,4,5,21,21,21,20,21,21,23,24,22,21,21,19,21,22,22,22,26,26,27,31,55,113,119,126,131,126,86,93,106,113,114,116,110,128,209,215,228,229,212,138,160,164,165,170,160,132,99,87,70,60,45,28,27,28,26,23,24,23,19,19,22,20,22,21,21,21,24,21,21,23,23,22,29,30,30,30,29,26,23,23,23,23,22,24,23,23,23,22,22,23,23,23,22,22,21,23,21,22,20
doubleTap,4,6,22,20,20,21,20,18,20,20,22,24,24,21,22,20,19,20,20,21,20,21,18,19,20,21,19,21,21,19,18,19,17,18,18,22,22,26,27,28,26,27,36,64,92,123,132,132,135,226,274,285,290,288,221,159,174,190,187,182,162,116,62,53,43,32,27,20,20,20,22,20,20,21,21,18,21,22,20,21,23,20,19,20,19,19,22,22,22,23,22,20,22,19,20,19,21,21,23,21,23,21,27,27,26,26,26,19,19,20,21,22,23,22,22,20,18,17,16,17
doubleTap,4,7,22,22,21,22,22,21,22,22,21,20,22,20,19,21,22,19,21,23,22,22,22,21,20,21,20,20,20,21,21,23,22,23,22,28,30,94,104,112,139,181,180,177,176,308,347,408,412,412,317,250,138,197,202,201,199,178,94,70,64,57,43,31,28,27,25,22,19,19,18,18,19,20,20,19,20,19,17,17,24,24,24,24,23,16,16,17,17,15,17,17,18,18,19,19,22,22,25,25,24,20,19,16,17,17,18,18,18,17,17,18,20,20,22,20,21,20
doubleTap,4,8,18,17,19,20,21,21,20,21,21,20,20,22,21,21,20,24,24,25,28,38,57,122,126,128,127,131,77,90,88,86,67,66,175,282,298,302,306,257,136,99,146,214,226,226,231,205,129,97,90,75,55,38,35,35,30,24,22,21,20,22,20,20,21,21,19,20,23,24,25,27,28,29,29,28,29,29,26,26,24,21,21,22,21,21,23,20,19,17,21,21,22,22,22,20,20,19,20,20,23,25,28,27,28,27,24,22,23
doubleTap,4,9,23,21,21,20,18,18,16,18,20,19,18,20,18,19,26,30,30,71,112,135,141,147,134,106,78,71,65,109,133,138,136,138,145,175,176,182,184,159,103,116,165,166,162,158,147,78,64,61,58,39,34,29,25,23,21,17,17,17,21,22,23,22,22,20,19,19,20,23,26,28,27,30,28,27,25,27,22,23,21,20,20,21,20,21,21,21,21,20,18,18,18,16,18,19,20,19,20,22