
fist,1,0,-0.4375,-0.8125,0.4375,0.625,-0.25,0.125,0.125,-0.375,-0.625,-0.6875,-0.625,-0.25,-0.25,-0.3125,-0.4375,-0.4375,-0.625,-0.0625,0.5625,0.25,-0.0625,-0.3125,0.1875,-0.0625,0.0625,-0.5625,-0.375,-0.125,0.5,0.0625,-0.1875,-0.125,-0.1875,-0.3125,-0.1875,0.0,0.125,0.0,-0.3125,-0.25,-0.25,-0.125,-0.5625,-0.25,-0.625,-0.625,-1.6875,-4.25,-5.0625,0.5625,7.0625,6.25,-6.1875,-14.1875,-17.5,-2.25,-7.625,-3.75,-5.0625,-4.375,-3.125,-3.0,-1.4375,-0.5625,0.25,0.25,1.875,2.4375,2.5625,1.4375,3.8125,4.0,3.0625,3.125,3.3125,3.625,3.0,2.0,1.5,0.375,1.25,0.875,1.1875,0.4375,0.0625,0.3125,0.8125,0.875,0.5,0.0625,-0.375,0.3125,-0.3125,-0.25,-0.0625,-0.0625,-0.125,-0.25,0.4375,0.75,0.3125,0.0,-0.25,-0.125,0.125,0.375,-0.0625,0.0625,0.3125,0.125,-0.3125,-0.75,2.125,8.75,5.5625,5.25,4.1875,2.25,-33.5625,-12.0625,23.125,-34.875,-6.25,0.25,0.625,-4.3125,-2.375,0.0625,-1.5,1.5,-0.875,-1.125,2.875,0.0625,2.3125,0.0,1.3125
fist,1,1,-0.25,0.0625,0.8125,0.4375,0.375,0.375,0.75,0.0,0.875,0.1875,0.3125,0.0625,-0.0625,0.4375,0.0625,-0.0625,0.125,0.0625,-0.3125,-0.5,-0.3125,0.25,0.0,0.3125,0.125,-0.0625,-0.3125,-0.6875,-0.375,0.125,0.25,0.875,-0.3125,-1.25,0.4375,-0.8125,0.5625,0.875,0.125,-1.3125,-2.125,-1.1875,0.25,8.0,8.375,8.0,-15.6875,-0.5,22.0625,-13.5,-10.6875,1.25,-0.25,-1.5,-2.0625,-0.9375,-0.4375,-1.1875,2.0,0.125,-0.75,-0.75,-2.0,-1.875,0.875,0.9375,0.25,-0.6875,-0.0625,1.3125,0.625,0.1875,0.875,0.6875,0.875,0.75,0.625,0.5,0.9375,1.5,0.75,0.5,1.0625,0.1875,-0.125,-1.0625,-1.3125,-2.0625,-2.1875,0.1875,-1.4375,-3.0,-6.625,-8.6875,-3.875,-0.375,-3.5625,-5.0625,-5.9375,-2.625,-1.875,-5.0,-1.5625,-3.0,-4.0,-0.4375,0.875,0.75,0.6875,1.25,2.875,1.3125,1.8125,1.5625,1.25,0.875,0.625,2.75,3.25,2.1875,1.1875,0.875,1.3125,0.9375,0.4375,0.375,0.0625,0.0625,0.1875,0.0,-0.25,-0.25,0.0625,0.5625,0.5,0.5625,-0.1875,0.4375,0.5,1.1875,1.875,4.625,7.9375,1.8125,-0.9375,0.75,0.375,-13.4375,2.25,6.1875,-8.1875,-3.75,1.5,3.0,-1.75,-0.125,2.5625,0.4375,-1.6875,-0.3125,1.9375,1.375,-0.125,-1.0,-0.75
fist,1,2,-0.1875,-0.625,-0.5,-0.875,-0.4375,0.125,-0.3125,0.0,0.625,0.25,-0.25,-0.3125,-0.3125,0.125,-0.0625,-0.3125,-0.25,-0.4375,-0.5625,0.125,0.3125,-0.5625,-0.6875,-0.5,-0.25,-0.25,-0.3125,-0.9375,-0.6875,0.4375,-0.625,-1.0625,0.125,0.125,-1.875,-3.0625,-2.3125,-2.6875,-1.5,-2.125,-3.125,-0.9375,-3.4375,-4.5,-2.125,-4.3125,-5.0,-3.625,-7.6875,-1.6875,-2.0,-3.375,-1.4375,-0.4375,0.0,0.25,-0.0625,1.4375,2.125,1.5625,0.8125,1.25,1.8125,1.25,1.3125,3.25,3.0,2.4375,1.75,1.375,0.4375,0.3125,0.375,0.0,1.375,0.625,0.5625,0.1875,0.375,0.3125,0.4375,0.5,0.9375,0.8125,0.0,-0.1875,0.1875,-0.25,-0.4375,-0.375,-0.5625,-0.3125,0.3125,0.3125,0.5625,0.25,0.9375,0.5625,0.1875,0.5625,0.6875,0.5625,-0.25,0.0,0.5,0.1875,0.1875,-0.125,-0.1875,0.3125,-2.0,2.3125,-1.0,1.5,2.0625,2.1875,0.9375,2.0625,1.125,-2.125,-0.625,5.5,7.1875,3.625,0.0,-3.625,0.125,-0.25,-0.625,2.6875,2.875,2.9375,2.1875,-1.25,-1.1875,0.5625,0.0,-1.4375,-2.4375,-1.9375,-0.75,-1.375,-2.8125,-2.25,-1.1875,0.125,-1.4375,-1.8125,-1.6875
fist,1,3,0.1875,0.0625,0.0,-0.5,-0.6875,-1.125,-0.625,-0.8125,-1.9375,-1.3125,-1.8125,-3.0,-1.75,-1.4375,0.5625,1.4375,-0.75,-2.0,-4.3125,1.0,-0.25,-5.625,-6.9375,-1.75,1.6875,-2.9375,-3.75,-2.5,-2.5625,-1.9375,-2.625,-3.4375,-3.1875,0.75,-0.625,1.125,0.3125,1.3125,1.75,2.0625,0.5,-0.4375,1.8125,1.125,2.0625,1.6875,2.625,3.25,2.4375,2.3125,1.875,1.5625,1.375,0.375,0.5,0.75,0.125,-0.5625,-1.5625,-0.3125,-0.75,-0.375,-0.5,-0.5,-0.5625,-0.0625,0.4375,0.625,-0.1875,0.5,0.3125,-0.0625,-0.4375,-0.25,0.3125,-0.5,-0.75,-1.1875,-0.3125,0.4375,0.25,-0.0625,0.5,0.25,0.5,1.4375,2.375,2.125,1.5,0.125,-1.6875,-1.1875,1.1875,0.25,-1.1875,0.375,0.0,2.0,5.4375,-2.8125,-3.5,3.9375,5.9375,-1.8125,-2.8125,0.875,2.875,1.0625,0.4375,2.1875,1.5625,0.6875,-0.125,0.9375,1.625,-0.1875,-0.75,-0.4375,-0.875,-1.5,-1.9375,-2.6875,-2.5625,-1.1875,-1.25,-1.6875,-1.0,-1.75,-2.0,-1.25,-1.625,-0.625
fist,1,4,-0.25,0.0,0.625,0.5,-0.375,-0.125,-0.5,-0.6875,-0.6875,-0.5625,-0.5625,-1.5625,-1.125,-1.0625,-2.0625,0.375,0.125,-1.625,-3.375,-3.75,-0.9375,-1.75,-4.4375,-3.125,2.8125,2.5,-2.25,-2.5625,-0.125,-1.6875,-3.8125,-3.0625,-1.6875,-0.3125,-0.9375,-1.1875,-0.9375,1.625,-2.0625,-2.8125,-1.125,-0.875,-1.4375,0.0,0.9375,1.75,1.25,1.0625,0.8125,1.0,0.6875,1.0,1.125,0.625,0.25,0.3125,0.0625,0.625,0.4375,0.6875,0.9375,0.0,0.6875,0.25,0.125,0.5,0.3125,-0.25,-0.125,-0.75,-0.3125,0.25,0.3125,0.6875,0.1875,0.0625,0.1875,0.5625,0.25,0.125,0.125,0.0625,-0.4375,-0.5,0.0625,-0.25,0.1875,0.1875,0.375,-0.25,0.0,-0.5,-0.125,0.125,0.125,0.75,0.75,1.6875,2.6875,3.875,2.375,-0.3125,-1.75,-0.8125,-0.125,-0.3125,-2.0625,3.1875,-1.6875,-8.0,5.5625,6.3125,-1.5,-4.9375,-2.375,-2.0625,-1.8125,-1.4375,-2.6875,-1.8125,1.25,0.8125,-0.3125,-0.6875,0.1875,0.9375,-0.8125,-0.1875,-1.25,-2.5,-1.5,-0.625
fist,1,5,0.0,-0.0625,-0.625,-0.8125,0.0,0.5625,0.3125,-0.375,-0.6875,-0.3125,0.0625,0.5,-1.375,-0.8125,0.5625,0.4375,0.0,-0.1875,0.0625,0.375,-0.25,-1.125,-1.1875,0.0,0.0625,0.0,-0.25,-0.625,0.25,-0.5625,-1.9375,-3.25,-3.0625,-0.0625,-4.0,0.9375,5.3125,3.625,0.125,-1.375,0.6875,0.375,-1.9375,-4.8125,-2.4375,0.9375,1.125,0.0,0.75,-0.0625,-0.6875,-1.0,-0.25,0.875,-0.1875,-0.75,-1.125,0.5625,0.1875,-0.0625,0.75,0.25,1.4375,0.8125,0.625,-0.125,0.875,0.5,-0.0625,0.9375,0.1875,-0.25,-0.9375,-0.375,0.0,-0.3125,-0.375,-0.875,0.125,-0.4375,-1.0625,-0.5625,-0.6875,0.375,-0.625,-0.75,-0.625,0.4375,1.0625,1.0625,1.1875,0.625,0.625,0.0625,-0.25,-0.5,-0.0625,0.0,0.5,-0.375,-0.3125,0.0,-0.125,-0.0625,-1.125,-0.5,0.625,-0.375,-0.875,-1.0,-0.125,-0.4375,-0.25,-0.5625,0.625,-0.4375,-1.6875,-0.375,1.9375,0.375,-0.8125,6.1875,2.3125,1.75,2.4375,2.75,1.3125,0.625,-1.8125,2.3125,0.875,0.875,-1.125,-0.875,-0.125,0.0625,-0.875,-1.25,-0.6875,-1.3125,-1.625,-2.125,-2.0625,-2.625,-1.0,-1.3125,-0.875,0.375,-0.5625,0.4375,-0.375,-0.125,0.25,0.9375,0.6875,0.6875,0.6875,-2.125,-1.3125
fist,1,6,-0.5,-0.5,-0.4375,-0.4375,0.25,-0.3125,-0.5,-0.625,-2.3125,-2.5,-1.75,-1.4375,-1.75,-2.8125,-2.5625,-2.875,-5.6875,-0.0625,2.375,-0.0625,-2.4375,-0.9375,0.5,1.4375,-1.6875,-1.3125,-3.25,-0.0625,0.75,-1.5625,-0.875,-0.5625,-1.3125,-2.25,-0.4375,-0.125,0.625,-2.5,-0.9375,-0.3125,-0.25,-0.0625,1.375,1.6875,1.3125,1.125,2.9375,2.75,2.4375,1.6875,2.75,2.125,3.0625,1.375,0.6875,-0.25,0.125,-0.1875,-1.1875,-1.625,-0.875,-0.6875,-0.5,0.1875,0.1875,-0.3125,-0.75,-1.25,-1.0625,-0.4375,-0.4375,-0.25,-1.0,-0.25,0.3125,0.1875,-0.3125,-0.125,-0.125,-0.375,-0.625,0.0625,-0.3125,-0.6875,-0.5625,-0.5,-0.125,1.125,1.4375,1.75,0.0,-0.75,-1.6875,-2.125,0.5625,0.5625,-0.875,-0.625,0.4375,2.0625,1.1875,3.3125,-2.9375,-0.875,1.8125,1.3125,1.875,0.0,-2.5625,-1.375,-0.1875,0.0625,2.0,3.4375,2.75,1.4375,0.0625,0.9375,1.0625,-0.3125,-0.875,-0.6875,-0.25,0.5,-1.0,-0.5,-1.5,-2.125,-1.1875,-1.375,-0.8125,-1.6875,-1.375,-1.5,-0.3125,0.1875
fist,1,7,-0.4375,2.375,1.625,-0.1875,-1.6875,-0.875,1.125,-2.1875,-3.6875,-0.5,3.5625,1.125,-4.5625,-5.875,-1.9375,2.0,0.25,-3.125,-1.6875,0.9375,0.5625,-0.0625,-2.0,-0.375,1.9375,0.625,-1.1875,-1.75,0.875,-0.125,0.3125,-1.0625,-1.4375,-0.625,-0.0625,0.0,-1.3125,0.0,-0.875,0.25,0.125,-1.5,0.0,0.125,1.5,1.25,0.75,0.625,0.3125,0.75,-0.0625,0.0625,-0.5,1.125,1.25,1.125,-0.375,0.375,0.0625,-0.3125,-0.625,-0.6875,-0.6875,-0.3125,0.3125,0.3125,-0.25,-0.3125,-0.125,-0.8125,-0.625,-0.625,-1.125,-0.4375,-0.4375,0.1875,0.5625,0.625,0.5625,0.25,-0.5625,-0.5625,-0.125,-0.0625,-0.4375,-0.3125,-0.5625,-0.1875,-0.5625,0.1875,0.1875,-0.25,-0.5,-0.625,0.0625,-0.1875,-1.125,-0.625,-0.125,0.3125,0.625,1.125,0.625,0.75,1.0,1.875,1.9375,-0.125,-0.375,0.9375,1.375,-0.0625,-0.8125,-1.0,0.875,1.0,0.9375,0.3125,0.3125,0.8125,0.625,1.5,2.5,1.5625,0.375,1.1875,0.3125,-1.125,-0.875,0.125,-0.125,0.0625,-2.125,-1.0625,-1.125,1.375,1.6875,0.375,1.625,-0.1875,0.75,0.5625,0.5,0.1875,-1.3125,-0.6875,-0.875,-0.25,-1.1875,-0.6875,-0.1875,0.125,-1.5,-1.9375,-1.375,0.125,0.5625,-0.4375
fist,1,8,0.5625,-0.375,-1.25,-2.8125,-1.0625,-3.125,-3.6875,-3.25,-1.875,-1.5625,-0.375,-2.125,-3.625,-1.6875,-0.6875,-1.6875,-3.0625,-2.125,1.8125,0.4375,0.9375,0.75,-0.125,-0.875,-0.4375,-1.625,-0.875,0.9375,-0.25,1.0625,0.75,0.5625,0.75,-0.1875,0.75,0.125,0.375,0.1875,0.625,0.8125,0.6875,0.5625,0.0625,-0.5,-0.125,0.875,0.0,-0.1875,-0.4375,-0.1875,-0.5625,-0.1875,-0.4375,0.3125,-0.0625,0.0625,-0.6875,0.875,0.0625,-0.5,-0.375,-0.75,0.8125,-0.1875,0.8125,1.125,0.9375,1.3125,1.375,3.0625,3.625,-0.625,-1.1875,0.0,1.25,0.4375,0.5625,1.0625,2.0625,1.8125,2.6875,2.4375,0.9375,0.625,0.875,1.3125,-0.0625,0.125,1.125,0.5625,0.875,2.6875,4.5625,2.625,-0.9375,-1.0,-0.375,0.0,0.875,-0.625,-1.625,-1.4375,-0.6875,-0.0625,-0.625,-0.875,-1.1875,-1.375,-1.1875,-2.6875,-2.875,-0.8125,-0.5,-0.4375,-0.875,-0.75,-0.5625,-0.625,-1.0,-0.1875
fist,1,9,-0.375,0.125,-0.25,-0.375,-0.3125,0.0,-0.375,0.3125,0.375,-0.3125,-0.375,-0.75,-1.6875,-1.5625,-1.625,-2.125,-2.375,-3.1875,-4.0625,-1.9375,-3.75,-4.625,-1.75,-0.875,-1.6875,-0.875,-0.125,0.4375,1.625,1.3125,-0.375,-2.25,0.1875,-0.9375,-2.25,-1.0625,-1.6875,0.125,-1.5625,-1.3125,-0.625,-0.5,-0.875,-2.0625,0.1875,1.125,-0.125,-0.6875,-0.875,0.375,0.9375,1.375,0.9375,1.4375,1.625,1.625,0.9375,1.125,1.375,1.6875,1.875,0.8125,-0.375,0.3125,0.0,0.3125,0.25,0.1875,-0.75,-1.375,-1.9375,-1.375,-1.1875,-1.8125,-1.3125,0.125,-0.1875,-0.25,-0.125,0.0625,0.3125,0.25,0.875,0.8125,1.625,0.5,1.0,0.9375,1.1875,0.6875,-0.3125,0.3125,0.6875,0.625,0.0,-0.5,0.25,0.5,1.3125,1.25,1.0625,-0.5625,-1.0,-1.6875,-0.375,-0.3125,-0.75,0.3125,1.625,-0.1875,1.25,2.0,0.8125,1.375,2.4375,-0.625,-1.875,1.1875,0.375,1.1875,0.5625,0.125,0.75,-0.8125,1.375,0.625,-0.5,-1.25,-0.625,0.0,-1.25,0.375,-0.375,-1.5,-0.5625,-0.75,0.25,0.1875,-0.8125,-0.5625,-0.25,0.25,-0.5,-0.9375,-0.625,0.625,-0.1875,0.4375,0.3125,-0.3125,-0.5625,-0.625,0.1875
fingersSpread,1,0,0.5625,0.75,1.0625,0.0,-0.75,-0.25,-0.3125,0.375,-0.0625,-0.4375,-0.3125,-0.4375,-0.0625,-0.0625,-0.125,-0.25,-0.6875,-0.4375,-0.5,-0.4375,-0.8125,0.0625,-0.125,1.8125,0.1875,1.5,-0.875,-0.875,-1.4375,-0.5625,2.5625,1.875,1.3125,-0.1875,4.25,2.4375,-0.75,3.6875,3.625,0.3125,2.3125,1.25,0.25,-1.125,-1.0625,1.875,2.75,4.5625,1.375,2.0,2.1875,3.25,2.1875,0.5625,2.8125,2.0625,2.625,-1.0625,2.0,-0.5,1.625,0.375,0.875,1.375,0.375,4.9375,10.5625,7.6875,-3.1875,-7.0,1.8125,2.0,-1.0625,-1.125,-2.0625,-1.25,1.75,1.5625,-0.5625,-0.375,1.25,1.3125,1.5,1.875,1.25,1.4375,-0.1875,-0.5625,0.5625,0.5625,-0.625,-1.125,-0.75,-0.375,-0.375,-2.1875,-3.0,-2.375,-1.5,-1.75,-2.1875
fingersSpread,1,1,-0.125,1.4375,0.125,-1.625,2.5,2.9375,2.6875,0.8125,2.75,3.3125,-0.6875,1.625,1.6875,0.8125,0.8125,-0.125,1.5,1.5625,0.75,-0.1875,-1.8125,1.375,-0.25,0.5,1.75,1.25,4.0625,-0.4375,0.1875,-0.5625,0.875,1.4375,0.4375,0.875,2.5625,-0.875,1.3125,1.125,3.0625,-2.0,-1.4375,-1.75,-0.8125,-1.3125,-0.8125,-0.3125,-0.5,-1.0625,3.0,7.9375,3.8125,-2.875,2.125,3.4375,5.375,-1.3125,-4.4375,-5.5,-4.1875,-2.8125,-3.0,-4.0625,-4.1875,-1.3125,-1.3125,-3.3125,-4.75,-4.875,-3.9375,-2.3125,-2.6875,-2.5,-1.125,-1.5625,-1.4375,-2.0,-1.625,-2.0,-2.25,-1.6875,-0.875,-0.8125,-0.75,0.5625,1.25,1.0,1.1875,1.0,2.0625,2.125,1.4375,0.6875,0.375,0.5625,1.0625,0.625,0.4375,0.125,-0.4375,0.1875,-0.875,-0.3125,-0.75,-0.75,-0.625,-0.375,-0.4375,-1.0,-1.3125,-1.3125,-0.9375,-1.4375,-1.125,-0.1875,-0.4375,-0.375,0.4375,0.875,0.125,0.625,0.875,1.5,0.625,1.0625,0.1875,1.125,0.625,0.625,0.5625,-0.5,-0.0625,0.125,0.75,0.0,0.0625,0.125,-0.5,-0.625,-0.6875,-0.5,0.8125,0.9375,1.0,0.625,-0.3125,-0.0625,0.3125,0.1875,0.25,0.3125,0.5,0.5,0.6875
fingersSpread,1,2,-0.1875,0.75,0.375,0.6875,0.5625,0.1875,0.0,0.6875,0.375,-0.3125,-1.125,-0.9375,-1.125,-0.1875,-1.625,0.6875,-0.25,-0.75,0.0625,1.875,-0.5,1.625,-0.8125,-0.1875,0.5,-0.9375,-0.375,0.875,0.4375,2.5625,0.875,2.4375,1.0625,1.0,2.25,0.0,0.5,2.125,1.5,2.5625,3.0,0.3125,2.125,2.5,1.75,1.5,2.625,1.9375,1.5625,-0.1875,1.0625,0.375,0.5625,0.1875,-0.1875,0.1875,0.9375,0.75,2.0,0.5625,0.6875,1.8125,0.125,1.4375,0.875,0.875,1.6875,1.1875,1.6875,1.6875,0.4375,0.375,-0.0625,-0.6875,-1.0625,0.0,0.25,0.5625,-0.8125,-1.3125,-0.375,2.375,1.875,1.25,-0.5,2.625,7.6875,2.5625,-10.1875,-1.875,-0.1875,1.875,0.5625,-3.625,-2.5,-0.1875,-0.8125,-1.5625,-3.25,-1.75,0.1875,1.0625,0.625,1.0625,-0.25,0.0,0.25,1.1875,1.6875,0.25,0.625,-0.3125,0.5
fingersSpread,1,3,0.25,0.5,0.75,1.0,0.9375,0.0625,0.125,0.3125,0.0625,0.0625,0.25,0.25,0.3125,0.625,0.625,0.6875,1.0,0.5625,1.3125,0.6875,1.0,0.9375,0.6875,1.8125,2.375,1.375,1.375,-0.5,0.4375,1.1875,2.1875,-0.375,-2.5,-0.25,2.9375,1.3125,2.3125,0.625,2.625,4.0,2.4375,2.625,1.75,0.0,1.625,2.75,3.3125,2.0625,0.75,1.5625,0.25,1.25,1.125,1.5625,0.5,-0.3125,0.125,0.3125,0.8125,0.6875,1.4375,1.3125,-0.125,1.125,1.0,1.1875,0.9375,0.0625,1.0,1.5,0.5,-0.1875,0.4375,3.125,0.6875,1.125,-0.6875,0.375,1.1875,-0.25,-0.125,-0.5625,1.25,-0.125,-0.4375,0.0625,0.5,-0.75,-0.5,-2.4375,-5.5,-0.4375,3.5625,4.625,-6.4375,-6.6875,-1.5625,3.875,4.1875,-9.0,-13.625,-5.125,-1.0,5.9375,6.4375,-0.1875,-2.8125,-1.1875,0.8125,-0.8125,-3.0,-2.75,-0.625,1.125,-0.3125,-1.4375,-0.625,0.1875,0.25,-1.0625,-1.375,-1.25,0.375,0.0625,0.0625
fingersSpread,1,4,0.375,0.4375,0.0625,0.0,-0.125,-0.125,-0.0625,-0.5625,-0.625,-0.5,-1.125,0.625,0.0625,-0.4375,-0.125,-0.5,-0.0625,-0.5625,0.625,0.5,-1.75,-1.4375,0.1875,1.375,3.25,1.875,-0.9375,-2.25,0.4375,4.0,1.25,-0.25,1.1875,4.0625,4.0625,2.0625,2.0625,2.75,1.5625,1.875,1.375,2.375,2.6875,3.0,3.125,2.5625,1.375,4.125,4.4375,7.1875,5.5625,5.0,3.125,0.5,0.625,0.1875,0.0625,0.9375,-0.6875,0.3125,1.125,1.375,1.125,2.1875,1.875,1.5625,2.375,0.4375,0.25,1.6875,1.5,1.625,0.875,2.25,1.625,0.25,0.9375,0.3125,-1.3125,-2.8125,1.0,1.3125,0.375,-1.25,-0.1875,2.5,-0.5,-3.6875,-2.0625,-0.75,0.5,-5.1875,-3.375,-4.9375,2.1875,5.4375,-3.125,-7.25,-2.6875,-2.625,6.75,5.6875,0.6875,-0.75,-0.6875,-0.1875,-0.6875,-1.6875,-1.875,-0.875,-1.0,-2.625,-3.9375,-2.4375,2.3125,0.8125,-0.6875,-1.8125,0.8125,0.875,0.25,-0.5625,0.125,0.3125,-1.625,-1.5
fingersSpread,1,5,-3.0,-2.4375,-2.25,-3.375,-2.0625,-1.375,3.9375,1.0625,1.125,1.125,2.25,3.1875,3.4375,2.5625,0.75,-1.5,0.0625,1.75,2.0,3.25,4.625,3.25,6.4375,3.9375,5.375,5.375,5.1875,3.6875,2.25,2.0625,1.5,1.0625,0.9375,2.75,-0.9375,1.4375,1.0625,0.75,0.6875,0.5,-0.8125,-1.4375,-2.1875,0.75,-0.6875,0.875,0.75,1.5625,0.5625,-0.875,0.9375,1.4375,0.375,-1.9375,0.375,1.0625,-1.0,-0.75,0.0625,-0.875,-2.5,-0.8125,0.375,0.5625,0.0625,1.25,0.625,-0.0625,-0.375,0.25,1.625,4.375,-2.375,-5.5,1.9375,2.75,-0.125,-9.0,-3.6875,-0.3125,4.25,3.1875,-1.6875,-1.0625,2.125,2.625,0.5625,-2.0625,-1.1875,0.375,1.75,1.8125,1.4375,2.0625,3.0,1.5,0.625,0.25,0.6875,0.8125,-0.0625,0.125,-0.1875,1.0625,1.9375,2.5625,0.9375,0.0625,0.75,0.375,0.3125,0.4375,0.5625
fingersSpread,1,6,0.25,0.1875,0.375,0.3125,-0.5,0.0,0.1875,-0.125,0.0625,-0.375,0.3125,0.125,-0.25,0.0,-0.3125,-0.0625,0.1875,-0.1875,0.5,0.0,0.8125,0.625,2.1875,0.125,1.5,1.6875,0.875,0.0625,-0.375,2.75,1.3125,-0.6875,-1.1875,-0.5,2.0,-0.3125,-0.375,1.375,0.625,2.125,-0.375,0.0,1.8125,-0.1875,-1.1875,-0.6875,1.0,0.8125,-0.6875,0.3125,3.0,-0.75,-1.3125,1.875,1.0,0.6875,2.0,2.25,3.0,1.75,1.875,2.375,3.1875,1.0625,1.0,1.0,0.625,1.5,0.875,0.3125,0.25,0.875,1.125,-0.625,-0.4375,0.75,0.375,1.4375,0.5,-0.3125,1.25,-0.0625,-0.5,-0.25,1.1875,3.25,0.1875,1.75,1.0625,0.3125,-0.4375,0.6875,0.8125,0.125,-1.0,-1.0625,-0.75,0.5625,-1.0625,-1.9375,0.6875,3.6875,2.875,-0.3125,-2.25,-3.9375,-2.3125,-0.5,-0.5625,-2.0,-2.875,-3.0,-1.4375,-1.3125,-1.4375,-2.0625,-1.875,-0.5625,1.125,-0.3125,-0.3125,-0.1875,-0.75,-0.25,0.125,-0.0625,0.4375,-0.0625,0.0625,-0.1875,-0.375,0.5625,0.625,-0.125,-0.625,-0.375,-0.25
fingersSpread,1,7,-0.5625,-0.5625,-0.0625,-0.125,-0.8125,0.5,1.8125,2.0625,0.625,-0.375,-0.0625,0.875,1.0625,0.125,-0.1875,0.25,1.375,1.25,-0.0625,0.0,-0.0625,1.375,0.5625,-0.8125,-0.125,0.4375,0.875,1.75,1.75,0.6875,2.3125,3.3125,1.5,2.25,4.125,3.125,2.3125,-0.6875,0.625,-0.25,0.9375,-2.25,-2.0625,-1.375,2.0,2.5625,0.25,-0.375,2.0,0.5625,1.0625,1.9375,4.25,4.875,1.75,4.1875,3.375,5.125,3.25,3.6875,-0.25,-1.625,0.875,1.4375,0.1875,-0.4375,1.75,1.8125,-0.0625,0.375,-0.1875,0.875,0.5625,-1.9375,-1.875,-0.1875,-0.8125,-0.875,1.6875,2.75,0.875,1.625,1.0625,2.3125,-0.5625,-1.3125,0.5,0.9375,-0.75,0.1875,-2.6875,-1.4375,-0.375,-1.625,0.375,0.875,0.625,-2.4375,-3.0625,-2.3125,-0.8125,-1.75,-5.8125,-1.5,-2.875,-0.375,3.0625,0.125,-0.25,0.375,0.875,0.625,-1.5625,0.25,2.3125,0.5625,-0.375,-0.0625,1.1875,0.875,-0.75,4.0,3.9375,2.5625,-0.4375,-0.375,-0.8125,0.125,0.625,-0.1875,0.0,-0.8125,-1.1875,-1.0625,-0.5625,-0.4375,-0.4375,-0.0625,-0.4375,-1.6875,-0.5625,0.0625,0.9375
fingersSpread,1,8,0.5,0.625,0.375,0.6875,0.625,0.375,0.3125,0.1875,-0.1875,-0.0625,0.3125,0.25,-0.4375,-1.4375,-1.5625,-1.8125,-2.3125,-1.1875,-1.125,-0.9375,-1.75,-1.0625,-2.25,1.6875,0.6875,-0.3125,1.875,0.9375,2.875,4.1875,4.8125,2.5,3.6875,4.5625,5.1875,3.0625,-0.9375,0.625,2.3125,2.875,0.75,-0.9375,0.0625,1.5,1.8125,1.5,1.625,1.8125,2.5625,2.1875,2.0,1.75,1.625,1.625,1.5625,1.75,2.1875,2.5625,1.75,1.6875,-0.4375,0.0625,1.3125,1.75,-0.375,-1.375,0.375,0.75,1.25,-0.4375,1.8125,1.0625,4.4375,6.125,3.0625,2.875,4.0,3.8125,2.6875,0.5625,-1.125,0.4375,1.375,-1.125,1.0,0.8125,0.6875,-0.125,1.3125,-0.875,-2.0,-1.125,-0.5,1.0,-0.0625,1.0625,-0.9375,1.375,1.1875,0.6875,-0.6875,-0.5625,0.625,-0.875,-2.0625,0.0,0.5625,-0.0625,-0.75,-1.25,1.0625,0.0625,2.3125,2.0,-4.9375,-5.9375,-0.3125,2.6875,-0.9375,-5.0625,-3.0625,-2.875,0.3125,2.6875,-1.75,-1.4375,0.5625,2.125,3.9375,4.5,1.75,0.3125,0.0625,-0.75,-1.75,-2.1875,-1.625,-1.3125,0.5,0.4375,-0.1875,-0.625,-0.6875,-0.6875,-0.125,0.5,1.5,0.9375,0.125,-0.0625
fingersSpread,1,9,-1.375,-0.875,0.0,0.1875,-0.6875,-1.375,0.375,2.5625,1.25,0.5625,1.0,1.625,1.75,0.5625,0.0,0.875,-0.3125,0.25,0.875,0.8125,0.4375,0.5,1.75,1.5625,0.125,1.0625,2.875,2.0,2.6875,2.75,1.875,3.75,5.25,2.75,2.0625,0.5625,1.9375,1.875,2.3125,1.9375,2.9375,1.1875,1.9375,1.75,0.25,1.4375,1.0625,1.0625,1.4375,-1.6875,0.625,1.625,-1.1875,-0.6875,0.6875,1.875,-0.125,-0.75,-1.1875,-0.5625,0.3125,1.5,1.4375,0.375,2.375,1.5,0.125,0.9375,1.625,0.125,0.9375,0.3125,0.25,1.3125,1.9375,0.125,-0.625,-0.0625,-0.4375,-0.375,0.3125,-1.125,-0.6875,-0.3125,-0.375,0.4375,1.6875,2.4375,0.75,-0.5625,0.375,0.4375,1.0,-0.125,0.625,0.0,0.125,-0.625,-1.5625,-0.375,-1.3125,-0.4375,-1.1875,-0.6875,0.4375,2.125,2.5,2.0,-2.75,-3.625,-1.1875,1.8125,2.75,-4.625,-5.75,-2.6875,2.1875,2.0,-0.5625,-2.4375,-0.8125,0.5,0.75,0.625,-1.5,-1.75,-1.0625,-0.5625,-0.375,-0.375,-0.3125,0.625,1.125,1.0,1.0,0.875,0.5,1.1875,1.625,1.4375,-0.375
waveOut,1,0,0.0625,0.5,0.3125,0.75,0.9375,1.375,1.625,1.9375,1.375,1.8125,1.125,5.9375,5.125,3.9375,5.9375,6.8125,3.4375,2.875,4.9375,6.4375,6.1875,6.3125,4.0,3.6875,2.6875,1.8125,2.0625,3.125,2.9375,2.3125,0.625,-0.75,-1.375,0.0625,-1.0,-2.375,-5.5625,-7.1875,-7.625,-3.5625,0.9375,2.9375,3.5,1.8125,0.125,1.4375,4.125,5.75,5.0625,4.1875,2.6875,2.0625,1.625,-1.1875,-3.6875,-3.5625,-1.6875,-1.875,-1.8125,-1.6875,-1.5625,-0.5625,-0.6875,0.375,-0.4375,1.0,0.8125,0.75,0.5625,-1.3125,-1.625,-1.3125,-1.3125,-1.5,0.0,0.0,0.25,-0.875,-0.125,0.0,-0.3125,1.0,0.75,1.5,-2.375,-2.625,-4.0,-2.5625,-1.75,4.8125,5.0625,-0.75,-5.125,-6.3125,-0.5625,2.9375,1.0,-5.375,-9.3125,-2.9375,3.0625,4.8125,-4.5625,-6.875,0.75,3.0625,3.5625,-0.5625,-6.4375,-4.9375,-2.0,-0.5625,-0.3125,-1.0,-2.0625,-1.5625,0.25,0.8125,0.9375,0.375,1.75,1.8125,1.9375,1.375,0.125,0.0
waveOut,1,1,0.0,0.9375,2.6875,2.0,-0.1875,-0.3125,1.1875,2.8125,2.625,1.875,-0.125,1.125,1.375,0.5,1.6875,0.1875,0.5,0.25,1.875,1.0625,1.0,-0.3125,-2.9375,-3.6875,-2.5,-1.5,-1.8125,-2.125,-3.25,-2.125,-3.1875,-3.1875,-5.0625,-4.0625,-2.1875,-0.3125,-0.0625,0.125,-0.0625,-0.8125,-0.3125,0.75,0.9375,1.0,0.375,-1.0625,0.0625,-0.6875,-1.625,-3.0,-0.625,1.375,2.5625,2.375,1.25,2.375,3.5625,5.6875,4.0,3.125,1.375,1.25,2.625,2.3125,0.5625,0.125,0.625,0.0625,-0.125,-1.375,-1.875,-2.125,-1.875,-1.0625,-0.875,-1.3125,-0.6875,-0.1875,0.5625,0.4375,1.1875,-0.6875,-2.6875,-4.4375,-6.375,-5.4375,-6.0,-2.9375,-2.9375,-1.6875,3.0,-1.0625,-6.25,2.875,3.6875,-0.625,-4.875,-3.125,3.4375,7.4375,4.5625,-1.25,-6.0625,-1.0,5.6875,3.625,-0.5,-3.25,-2.0,2.8125,9.125,4.625,0.5625,0.4375,1.25,3.6875,4.625,1.6875,3.0
waveOut,1,2,-0.625,-1.0,-0.375,-0.125,-0.25,0.0625,1.4375,2.375,1.6875,0.875,-1.875,-0.25,-1.0625,-0.4375,0.75,1.3125,-0.9375,-3.125,-4.5,-2.5625,-1.9375,-4.4375,-5.0625,-2.875,-2.6875,-1.4375,-3.0,-3.625,-2.0625,-0.0625,2.1875,3.625,2.8125,1.8125,0.5625,-1.0,-2.9375,-2.75,-3.6875,-3.5625,-2.9375,-1.0625,-1.125,-0.6875,-2.0,-2.125,-1.5,-1.5,-3.25,-3.625,-4.6875,-4.5625,-1.8125,0.0625,2.5625,2.0625,3.625,4.875,2.125,-2.625,-3.6875,-1.6875,2.1875,0.0625,-3.1875,-4.375,-4.25,-2.4375,-3.375,-2.125,-2.4375,-1.1875,-0.6875,0.3125,0.1875,-1.3125,-2.6875,-6.1875,-8.9375,-8.5,-8.5,-7.8125,-11.6875,-9.25,-2.4375,-0.9375,-7.125,-3.6875,2.5,5.6875,2.1875,4.4375,9.6875,8.75,7.25,3.9375,-0.4375,6.3125,8.25,2.3125,-2.9375,0.1875,4.6875,-1.75,-5.375,-8.125,-6.625,-1.5,-0.375,-1.875,-1.625,-2.4375,-1.9375,0.1875,1.9375,1.5625,1.75,1.875,1.625,2.6875,1.75,2.75,2.375,2.125
waveOut,1,3,1.1875,1.5625,0.25,-0.875,0.6875,0.625,0.6875,0.625,2.25,1.375,0.8125,2.0,1.6875,0.3125,1.3125,1.875,0.6875,2.125,3.875,4.5,1.75,1.125,0.9375,2.4375,2.625,1.1875,-0.5625,1.0,2.5,1.25,-1.5625,-1.8125,-4.3125,-6.125,-5.0625,-5.125,-7.6875,-8.0,-6.5625,-3.5625,-2.0625,-0.4375,0.9375,1.5625,3.375,1.875,2.5,2.1875,1.8125,1.3125,-0.3125,-0.6875,-0.125,1.5,1.0625,2.5625,2.125,1.3125,0.125,-0.25,0.3125,0.125,0.125,-0.3125,0.5,0.0,0.5,0.1875,-0.5,-0.75,-0.5,1.375,1.9375,0.5,-0.5625,0.8125,2.0625,2.3125,1.1875,0.0625,-0.375,1.0625,1.6875,4.5625,3.0625,1.5625,0.0,0.4375,2.3125,1.625,-2.625,-0.9375,-2.1875,-0.5625,-6.9375,-4.0,-1.5,0.25,-0.9375,-6.5625,-4.125,8.6875,6.8125,0.0,-3.1875,-1.8125,13.4375,12.9375,3.75,0.8125,3.0,6.1875,6.9375,7.75,4.375,-0.0625,1.75,4.4375,1.8125,0.5625,-1.0,-0.4375
waveOut,1,4,0.4375,0.375,0.6875,0.6875,0.4375,-0.25,-0.4375,0.125,0.5,0.6875,1.1875,1.6875,2.6875,1.0,-2.625,1.5625,1.3125,4.0,6.9375,4.375,3.6875,2.125,0.375,0.4375,-1.8125,-1.875,-1.5,-0.9375,-1.5,-1.625,-2.8125,-1.75,-1.0,-2.125,-2.75,-2.6875,-3.375,-2.1875,-1.8125,-3.3125,-2.9375,-2.0625,-2.5,-2.625,-3.9375,-3.25,-1.5625,-0.6875,-1.125,-1.8125,-1.375,-0.9375,-2.875,-2.8125,-2.6875,-0.25,0.5,0.625,-0.5,-0.5625,-0.5,0.25,0.3125,1.125,-1.125,-1.5625,-2.4375,-1.6875,-1.5625,-0.5625,-1.125,-0.75,-0.75,-0.25,0.75,-0.0625,-1.25,-0.9375,-1.0,1.375,1.6875,2.25,1.25,0.3125,0.625,1.0625,0.375,0.9375,2.6875,1.1875,-0.0625,-1.8125,-1.8125,-0.875,1.4375,2.5625,0.9375,0.75,0.125,0.3125,-0.3125,-0.125,-0.625,0.1875,0.0625,3.6875,0.8125,-4.6875,-6.0625,-7.3125,-4.5625,-2.25,-2.6875,-2.8125,-3.375,-0.5,1.5,-2.25,1.5625,5.875,1.6875,2.375,0.75,-1.3125,-3.3125,3.5625,5.25,3.5,1.25,-2.3125,2.6875,6.5,4.0,2.5625,1.1875,1.8125,3.375,3.8125,0.625,1.25,2.6875,2.0625,2.1875,0.6875,-0.75,-0.0625,-0.5625,-0.5,0.0,-0.1875,0.8125,0.9375
waveOut,1,5,0.3125,0.5625,0.25,0.9375,0.0625,-0.5625,0.1875,1.875,2.5625,6.5,6.125,4.8125,3.4375,2.5,4.125,1.25,-2.125,2.875,1.4375,1.0625,0.375,-0.6875,-4.5,-4.5,-2.625,-0.375,-0.5625,-0.875,-2.25,-2.0625,-2.9375,-3.6875,-1.4375,-0.0625,-0.625,-0.375,0.25,1.9375,1.375,5.0,5.75,4.125,2.5625,2.5625,3.1875,4.25,4.1875,1.75,0.6875,-1.375,1.5,2.9375,2.3125,1.1875,0.25,0.5,0.0625,-1.0625,-0.75,0.3125,0.375,1.75,2.1875,2.5,2.625,3.25,3.0,2.875,2.5,1.5625,-1.0625,-0.4375,0.25,-0.125,-1.0,-2.5,-2.8125,-1.125,-1.0,-1.1875,-1.5,-1.3125,-0.125,-0.875,0.375,-0.5625,-1.5,-2.875,0.75,0.625,-1.875,-3.625,-4.6875,-1.5,-0.8125,-1.875,-3.625,4.625,3.625,-3.0625,-5.25,-2.75,-1.3125,-1.0,-3.625,-4.125,-2.3125,3.0625,2.8125,-0.875,-3.5625,-1.625,3.125,0.9375,-3.0625,-4.25,-0.4375,1.75,2.9375,1.0625,-0.5,1.0625,3.5625,4.875,2.9375,2.0625,0.1875,2.1875
waveOut,1,6,-0.5,-0.125,0.25,0.3125,0.6875,0.625,0.9375,1.25,1.125,1.125,1.25,1.5,2.0,0.5625,-0.4375,3.125,2.0,2.1875,1.3125,-1.375,0.375,0.875,0.8125,0.875,1.4375,-0.125,0.375,2.125,1.9375,0.875,-0.875,0.0625,-0.5625,-1.9375,-1.1875,-0.4375,-0.875,0.0625,-0.125,-0.25,1.0625,0.0,-1.4375,-5.5,-5.5,-8.75,-12.3125,-13.0625,-13.1875,-14.3125,-14.9375,-12.625,-12.9375,-11.0625,-9.8125,-8.25,-7.4375,-3.375,-4.0,-2.5625,-0.8125,-1.0625,-1.8125,0.75,2.8125,4.6875,5.875,5.8125,5.375,4.75,4.875,4.375,3.75,2.125,1.0,1.125,2.6875,1.75,-2.25,-3.4375,-3.875,-0.4375,0.5,1.875,0.6875,0.125,1.3125,2.375,-0.75,0.875,-1.125,-0.75,-2.0,-1.9375,-1.4375,-1.0,-0.625,-0.1875,0.0,1.4375,-0.3125,-0.9375,0.125,0.375,4.25,-1.375,-7.125,-12.3125,-8.5,-2.375,1.0625,-5.75,-4.75,-3.125,4.0,3.5,-0.9375,-2.125,9.0,10.0,5.6875,0.3125,-2.75,8.875,7.6875,1.1875,-5.5,-6.4375,0.0625,2.6875,-0.125,-1.9375,-0.8125,0.6875,2.8125,1.25,-3.125
waveOut,1,7,-0.4375,-0.8125,-0.375,0.625,1.4375,1.1875,1.3125,0.4375,1.0,0.75,0.0625,-0.125,0.4375,1.1875,0.6875,0.6875,1.25,0.5,0.1875,0.4375,2.1875,1.5,1.5,0.6875,0.375,1.4375,-0.0625,-2.25,-2.3125,-1.4375,-2.125,-1.25,0.0,-0.6875,-0.5625,-0.6875,0.5,0.4375,-0.25,0.75,1.75,2.3125,2.5,4.75,4.0625,3.9375,1.0,-0.125,0.8125,-0.1875,0.0625,2.0,0.0625,-1.75,-3.25,-0.625,-0.625,-0.0625,-0.75,0.0625,-0.625,0.3125,1.25,1.875,1.6875,2.9375,4.625,4.8125,4.6875,2.3125,1.375,0.8125,1.0625,1.125,0.0625,0.25,-0.125,0.375,-0.125,-0.5,0.125,2.8125,4.4375,4.25,3.625,1.3125,1.75,1.6875,2.6875,1.3125,-0.5,-1.3125,-0.5,1.125,0.3125,-1.375,-1.4375,-0.8125,-1.125,-0.625,-1.375,-3.625,-4.75,-5.1875,-6.6875,-6.9375,-5.75,-4.8125,-4.3125,-7.125,-2.125,-0.6875,-1.625,-6.875,-3.625,1.6875,1.4375,1.375,-5.4375,-4.5625,8.75,8.625,4.25,-1.375,3.875,9.6875,6.75,-0.5625,-5.75,-2.5,4.5625,7.6875,3.0625,0.5,1.25,4.625,7.5625
waveOut,1,8,-1.5625,-0.375,0.5625,-0.75,-2.125,0.125,1.8125,1.375,0.125,-1.75,0.4375,1.5625,0.625,-0.375,0.6875,1.875,1.0625,0.3125,1.25,0.5,-0.625,1.0625,0.6875,2.3125,2.375,1.5,-0.1875,-0.25,-0.375,0.0,0.5,2.125,1.875,-0.0625,0.1875,-1.75,-1.5625,0.5,0.875,0.625,0.8125,-0.4375,-0.75,-0.75,0.3125,1.0625,0.0,-0.75,-1.75,-2.0625,0.8125,0.625,0.625,-2.125,-4.1875,-6.125,-4.3125,-4.3125,-3.125,-2.5,-1.625,-0.25,2.3125,1.25,0.8125,1.125,0.1875,1.375,1.375,1.9375,-0.9375,-1.3125,-1.6875,-2.0,-2.1875,-2.625,-3.0625,-3.9375,-2.9375,-1.25,3.125,2.9375,0.5,0.5,2.25,2.0625,2.25,1.5625,1.125,2.4375,-1.75,-5.9375,-5.0625,-5.0,-5.9375,-9.625,-3.625,-2.25,-2.75,-3.75,-5.9375,2.3125,7.0625,5.125,-2.4375,-2.0625,3.4375,8.0625,4.625,-3.125,-1.5,4.8125,5.1875,1.8125,-2.6875,-3.75,2.0625,5.0625,3.75,0.75,1.5625,3.875
waveOut,1,9,1.4375,0.4375,-0.625,-0.9375,0.0625,0.3125,0.3125,-0.1875,-0.5,0.0,0.3125,0.5625,0.5625,-0.3125,-0.4375,0.3125,0.5625,-0.125,0.25,0.0,-0.1875,1.0625,2.0,1.375,0.375,3.25,5.4375,8.0625,5.125,3.5625,4.5,2.5625,-0.125,-2.0,-1.0,-0.6875,-0.25,2.0,4.0,2.5625,0.625,-2.8125,-2.6875,0.375,2.375,2.375,-0.5,1.9375,5.25,5.4375,4.8125,6.25,6.1875,7.625,7.25,4.375,5.625,5.1875,5.125,4.5625,4.6875,2.0625,1.375,0.25,-0.8125,0.9375,1.75,0.8125,-1.4375,-2.25,-2.25,-1.875,-2.5625,-2.6875,-3.125,-0.75,2.8125,5.75,6.25,6.5625,5.8125,5.5,7.0625,6.625,6.4375,5.1875,1.5625,-1.0,-1.625,-1.1875,-2.125,-2.9375,-4.5,-2.5625,-2.25,-0.0625,-0.1875,0.0,-0.3125,-0.125,0.4375,0.25,-1.4375,-4.5625,-9.4375,-12.9375,-15.0,-15.8125,-12.9375,-8.6875,-11.25,-12.625,-8.3125,-2.5,-0.25,-5.375,-5.25,-2.75,2.5,2.5,-3.8125,-0.375,6.125,7.1875,5.375,1.9375,-2.0625,0.1875,6.375,7.8125,2.875,-1.625,0.1875,7.3125,6.0625,1.75,0.875,2.0,3.6875,2.125,0.3125
waveIn,1,0,2.6875,3.0,4.375,5.0,5.4375,2.5625,2.125,2.25,1.6875,1.8125,1.1875,1.8125,0.875,-0.625,1.0,6.5,10.875,10.75,11.75,12.1875,14.875,13.75,13.125,11.625,10.75,9.75,7.0,6.0625,4.125,2.25,2.875,3.25,5.625,7.6875,5.9375,4.8125,3.875,0.5625,0.25,0.625,-0.75,0.8125,0.3125,-2.25,-4.5625,-5.875,-2.125,1.3125,3.3125,0.3125,0.0,-0.4375,0.5625,2.4375,0.25,-3.8125,-7.5,-6.9375,-3.25,-3.25,-5.0,-7.8125,-10.875,-15.25,-12.875,-10.0,-7.375,-8.5,-9.3125,-3.625,-0.375,3.8125,3.1875,1.1875,-0.8125,2.75,5.5625,2.9375,1.8125,4.25,7.5625,9.125,6.25,4.1875,1.8125,1.125,-3.125,-3.5,-3.1875,-4.0,-4.375,-4.6875,-5.8125,-5.125,-5.125,-2.3125,-2.1875,-3.25,-2.4375,-2.875,-1.75,-1.5625,0.625,0.8125,-0.375,-1.875,-0.6875,0.6875,2.4375,1.375,-1.5,-1.1875,0.3125
waveIn,1,1,1.125,0.125,2.3125,1.3125,1.0625,0.4375,-0.0625,0.0,0.8125,0.375,0.3125,-0.8125,-5.1875,-6.25,-10.0625,-7.75,-0.375,1.125,-1.4375,2.6875,4.875,8.9375,10.6875,12.625,13.0625,15.3125,11.6875,10.8125,11.5625,10.1875,7.9375,5.9375,5.5,4.0625,1.9375,0.5625,0.5625,-0.875,0.5625,-0.1875,-1.3125,-2.0625,-1.3125,0.5625,-0.375,0.6875,1.9375,3.625,1.9375,1.625,0.6875,1.625,2.3125,1.5,0.5625,0.9375,0.0625,-0.3125,-1.0,0.3125,-0.25,0.6875,-0.8125,-1.3125,-2.0625,-0.3125,-0.375,-0.5,-0.625,-0.3125,-0.125,-0.125,-0.875,-0.6875,0.875,0.5,-1.1875,-2.4375,-2.875,-3.5625,-4.25,-3.9375,-5.6875,-7.875,-6.3125,-6.4375,-2.125,2.0,2.0625,-0.4375,1.25,3.125,6.5,2.8125,3.0,0.4375,-2.5,0.6875,0.375,-0.9375,-1.5,-3.75,-3.5,-3.5,0.3125,-0.75,-2.375,-2.625,-4.25,-4.0,-3.0,-2.1875,-2.1875,-3.25,-3.5,-2.4375,-2.5
waveIn,1,2,1.125,0.4375,1.0,0.625,0.6875,1.375,0.9375,0.4375,0.3125,1.3125,1.4375,1.5,0.875,0.6875,1.75,2.125,1.625,1.0625,1.4375,1.8125,1.5,1.0,1.0625,-1.5625,1.0625,0.4375,0.0625,-0.9375,-2.6875,-0.625,6.0,10.125,6.6875,12.3125,15.8125,12.1875,11.25,11.75,9.0,2.0,4.0,3.3125,9.3125,9.25,12.1875,11.625,11.1875,11.0,8.5,5.875,4.4375,5.4375,4.25,1.875,2.1875,0.8125,3.1875,2.4375,1.0,-0.1875,1.6875,1.1875,0.75,-0.875,-0.1875,-0.8125,-1.125,1.0,0.375,1.8125,-0.125,0.375,-0.4375,-0.125,-0.1875,-1.0625,-2.0625,-2.75,-5.0,-2.9375,-1.75,-4.25,-5.0625,-5.4375,-5.5,-6.8125,-10.0625,-14.3125,-16.125,-13.0,-10.375,-6.25,-4.375,-2.0625,0.375,-0.375,-1.625,0.8125,2.4375,4.4375,5.1875,5.6875,4.625,3.375,0.75,-2.1875,-2.0625,-1.125,-0.875,-0.8125,-0.9375,-0.875,-1.1875,-1.875,-0.8125,-1.5,-2.6875,-3.6875,-2.4375,-2.5,-3.25,-0.625,-0.25,0.1875,-0.8125,-0.6875,0.0625
waveIn,1,3,0.375,0.5625,-0.375,-0.75,-0.5625,0.4375,0.875,-0.0625,-0.1875,0.25,1.375,0.875,-0.5,-2.4375,-2.6875,3.25,6.375,4.0625,3.9375,5.4375,8.8125,8.0,6.5,7.375,5.25,7.75,1.25,0.4375,0.8125,5.25,7.0625,6.6875,6.9375,8.375,10.25,10.375,7.375,9.4375,6.25,9.3125,10.5,12.375,10.8125,10.5625,9.0625,7.375,5.9375,3.5,2.625,3.5625,5.9375,3.375,2.0625,3.0,1.0,0.75,-0.4375,-0.9375,-2.75,-2.0625,-1.0625,-0.9375,1.0625,-0.875,-1.875,-1.5625,-0.4375,-0.875,-2.0625,-2.0,-3.1875,-2.3125,-2.8125,-2.75,-3.25,-4.75,-6.125,-8.5,-9.0625,-10.4375,-10.3125,-8.5,-4.75,-2.5625,-1.875,-7.0625,-10.125,-2.6875,1.3125,1.875,-2.25,-6.0,-5.125,3.375,4.1875,-2.125,-6.125,-5.4375,1.5,5.375,-3.125,-7.4375,-4.9375,2.25,3.9375,-1.25,-9.75,-8.75,-1.0625,2.4375,-3.625,-7.4375,-7.9375,-5.3125,-4.0,-5.3125,-7.9375,-9.125,-6.5625,-2.6875,-1.5,-1.6875,-1.8125,-1.0,1.25,2.5625,2.875
waveIn,1,4,0.9375,0.0625,0.3125,0.0625,-0.25,0.0,0.3125,-0.25,-1.3125,-2.25,-0.9375,2.5,1.375,0.125,-1.375,-1.6875,1.1875,2.6875,0.9375,-0.1875,-0.0625,1.875,2.5625,2.3125,-0.125,-1.6875,-3.75,2.1875,2.75,-7.3125,-8.875,-2.0,3.75,5.5625,7.125,5.5625,4.75,6.5,7.0625,9.5,8.1875,5.4375,4.375,6.9375,7.3125,6.25,6.375,3.5,5.875,5.3125,5.1875,5.6875,3.9375,5.25,5.25,8.1875,5.4375,5.4375,4.5625,4.125,4.1875,3.625,5.25,4.1875,2.5625,0.5,-0.0625,-1.0625,-0.375,0.875,2.0625,2.6875,-0.25,-0.25,-1.5625,-1.4375,-0.75,0.5625,1.75,2.1875,0.875,0.1875,0.75,0.625,0.875,0.875,0.1875,1.5,2.5,3.5,2.9375,2.125,2.375,0.9375,0.625,-1.875,-2.75,-3.875,-4.0,-2.75,-3.875,-6.8125,-11.25,-14.4375,-12.25,-9.4375,-4.4375,-4.8125,-4.4375,1.6875,5.9375,4.75,-4.25,-9.5,-2.3125,4.0,5.0,0.4375,-7.9375,-8.0625,-1.1875,0.9375,-2.125,-6.0,-4.25,-0.125,2.8125,1.5,-2.125,-4.4375,-1.6875,0.8125,-1.1875,-2.25,-5.0625,-1.875,-1.8125,-1.75,-1.875,-3.4375,-1.875,-0.6875,0.25,-1.875,-2.5625,-2.5625,0.1875,-0.375,-1.625,-2.1875
waveIn,1,5,0.75,0.3125,0.6875,1.0625,1.6875,1.0,1.5625,-2.5,-4.0625,1.1875,6.8125,5.0625,3.375,3.75,6.6875,10.0,9.625,6.625,5.0625,4.625,9.0,7.3125,2.75,3.3125,0.8125,0.75,0.375,-0.8125,-5.125,-8.1875,-11.25,-11.1875,-7.5625,-7.3125,-5.5,-3.6875,-3.3125,-0.3125,1.6875,2.625,3.3125,4.6875,5.125,6.125,7.0,6.25,7.3125,7.5,8.875,10.1875,10.75,10.3125,9.5,9.625,10.1875,8.875,6.25,3.0625,1.1875,0.125,0.5,0.1875,0.875,-0.3125,1.125,-0.75,-0.75,-0.375,-0.8125,0.125,0.0,-0.75,0.5625,1.75,-1.0625,-8.0625,-8.625,-5.0625,-2.3125,-1.125,-1.4375,-2.4375,-1.3125,1.0,0.5625,-1.75,-2.8125,-2.0,-1.5625,-4.125,-6.6875,-9.9375,-9.6875,-6.0,-6.875,-6.25,-6.625,-5.625,-1.9375,-1.6875,-0.9375,-0.625,0.6875,1.25,1.1875,-1.1875,-2.125,-0.25,2.9375,4.3125,1.6875,1.625,0.25,2.625,0.8125,1.0625,-1.0,-0.4375,-1.4375,-0.5,1.5625,0.875,1.3125,-0.25,1.25,2.625,1.6875,0.0625,-3.5625,-4.25,-0.625,2.0,-0.125,-1.1875,-4.125,-0.75,1.4375,0.625
waveIn,1,6,0.5,1.4375,1.25,0.25,0.0625,0.5,0.9375,0.5,0.1875,0.75,1.375,1.5,1.125,1.0625,1.4375,0.625,1.0,0.375,0.6875,0.125,-0.5625,-0.875,-0.5,-3.3125,-4.375,-1.25,-2.875,-3.0,0.0625,2.3125,3.8125,4.8125,2.0,2.625,7.25,8.1875,7.4375,3.5625,2.9375,4.5625,4.125,4.375,0.4375,-3.1875,-0.6875,-0.875,2.5625,3.375,1.8125,0.0,-2.375,0.5625,5.1875,4.9375,5.0,0.625,1.125,0.25,-0.125,-0.375,-1.3125,-0.8125,1.375,5.5,6.375,5.875,5.6875,5.0,5.4375,5.875,4.25,1.9375,0.125,1.0625,1.75,1.875,2.5625,0.9375,1.25,-2.0625,-0.8125,-2.125,-4.5,-3.875,-0.875,-1.0,-1.8125,-1.375,0.9375,0.5625,-0.9375,-0.1875,0.1875,-0.0625,0.25,-0.6875,-3.625,-7.9375,-10.3125,-6.1875,-1.125,-5.0625,-8.0,-6.0,0.625,-0.125,-5.625,-7.8125,-0.0625,4.0,2.9375,-2.8125,-3.25,4.125,7.875,3.6875,-4.75,-2.3125,-0.1875,1.0,2.9375,-0.25,-3.5,-2.5,0.375,3.1875,4.5,-0.625,-3.5625,-3.0625,2.5,1.8125,-1.5,-4.875,-6.0625,-0.9375,-0.25,-0.75,-3.25,-3.9375,0.0,1.5625,0.1875,-0.8125,-0.75,0.125,1.0625,1.5625,0.25,-0.6875,-0.4375,0.1875
waveIn,1,7,2.4375,-1.5625,-4.875,-1.875,2.375,2.1875,-1.125,0.1875,2.375,4.875,4.6875,1.375,1.5,1.25,2.0625,2.0,0.375,0.5,0.0,0.8125,1.1875,1.0625,1.8125,2.1875,3.5625,6.8125,5.4375,3.25,2.25,3.0,2.6875,5.5625,3.8125,0.75,3.1875,11.375,17.3125,15.3125,13.875,16.4375,19.125,16.75,14.75,12.0,12.125,8.5625,7.625,6.1875,3.9375,4.125,4.75,4.5,4.4375,4.25,2.875,1.9375,-1.0625,-0.875,-0.6875,-1.4375,-1.6875,0.1875,1.375,1.8125,-0.6875,-1.75,-2.75,-3.6875,-4.625,-5.0,-3.25,-3.625,-2.5,0.375,1.625,2.1875,1.125,0.1875,-1.125,-2.4375,-5.3125,-4.3125,-2.75,-2.875,-0.875,-1.625,-3.1875,-2.375,-1.75,-0.625,-0.5,-1.875,-3.25,-4.9375,-4.625,-3.5,-3.625,-5.625,-12.4375,-10.1875,-6.5625,-1.0,0.75,-1.1875,-5.3125,-9.1875,-9.3125,-6.375,1.3125,4.1875,2.9375,-0.6875,-3.625,-0.1875,1.1875,-2.0625,-6.0,-5.8125,-3.875,-1.6875,-2.4375,-3.5625,-1.8125,-1.625,-2.125,-3.375,-2.4375,-3.3125,-4.5625,-5.625,-7.8125,-8.125,-7.375,-5.625,-3.5,-3.125,-4.25,-3.5625,-0.875,1.4375,-0.1875,-1.0625,-0.1875,2.25,2.6875,0.6875,0.8125,1.4375,3.0
waveIn,1,8,1.0625,1.0,1.625,0.375,0.75,0.625,-0.8125,0.0625,0.5,3.8125,2.125,0.125,1.1875,6.125,8.3125,5.4375,4.6875,5.5625,7.5,5.75,2.625,1.3125,4.875,5.6875,4.375,4.5625,6.8125,6.8125,10.1875,12.5,11.5625,10.4375,10.125,10.75,12.0625,9.1875,8.5625,8.5,9.4375,8.9375,9.875,7.875,7.375,5.875,4.8125,1.9375,2.125,3.3125,3.125,4.0,5.25,5.4375,4.3125,3.0625,0.8125,-0.125,0.625,3.125,2.9375,1.75,0.3125,-0.125,0.5,0.375,-0.0625,-0.5,-0.6875,-1.3125,0.375,1.125,0.4375,0.5625,0.125,0.5625,0.125,-0.5625,0.875,-0.1875,-0.3125,-0.75,-0.5,-0.0625,0.0,-1.0,-2.9375,-2.125,-2.125,-3.1875,-6.75,-8.625,-7.0,-4.375,-3.875,-2.625,0.6875,2.0,0.1875,0.4375,-1.8125,-1.75,-1.25,-2.125,-2.75,-4.75,-3.6875,-7.4375,-6.0,-1.625,2.1875,-0.1875,-4.4375,-6.375,-2.9375,-1.9375,-2.25,-4.9375,-7.375,-4.5,-2.3125,-3.3125,-4.3125,-6.0,-5.625,-6.625,-9.0,-7.125,-3.4375,-3.4375,-3.875,-6.5,-4.4375,0.75,2.0625,0.9375,-1.375,0.5625,0.5625,-1.5625,0.0,-0.5,-1.625,-0.25,0.6875,1.625,0.6875,-0.9375,-0.0625,1.5625,1.4375
waveIn,1,9,1.9375,1.125,1.9375,1.9375,2.125,1.5625,1.3125,0.9375,1.1875,1.0,0.5,0.3125,0.75,0.4375,-0.25,-1.625,-3.3125,-1.1875,0.75,0.4375,1.0,0.0625,0.25,2.875,3.4375,3.8125,1.625,-2.1875,0.6875,4.5625,1.25,-2.375,-0.9375,1.375,2.125,2.5,0.625,0.5,0.9375,0.0625,2.9375,2.75,1.375,1.4375,-2.25,-1.875,-0.5,1.9375,2.0,0.625,2.3125,2.375,4.75,7.1875,8.6875,10.375,10.3125,10.75,10.125,11.1875,10.25,9.1875,8.75,7.4375,6.625,6.75,4.6875,3.3125,0.8125,-0.8125,0.5625,3.0,4.25,3.25,2.625,4.375,3.375,3.9375,3.375,8.75,13.375,11.0625,9.8125,8.0625,5.8125,2.375,1.4375,3.125,4.0625,3.25,0.125,0.6875,-0.1875,1.6875,2.25,2.5,0.5625,-0.9375,-2.4375,-3.9375,-5.5,-4.875,-4.75,-4.5625,-7.5625,-9.0,-11.6875,-10.8125,-10.5625,-9.1875,-9.8125,-11.75,-12.6875,-13.25,-10.0,-7.5625,-6.8125,-6.9375,-7.0625,-5.1875,-0.625,-2.1875,-4.6875,2.0,6.6875,6.6875,2.75,-0.6875,-1.875,0.9375,4.5,4.5,0.75,-0.875,2.375,5.125,4.6875,1.4375,1.3125,2.375,2.5,4.0,1.25,-1.4375,-0.375,0.6875,-3.25,-2.4375,-2.4375,-1.6875,-1.25,-1.8125,-3.5,-1.625,-1.1875,-1.6875,-2.125,-3.1875,-3.625,-2.5625,1.25,1.0,-0.5,-1.3125,-2.25,-1.9375
doubleTap,1,0,-0.1875,-0.4375,0.0,0.5625,0.0625,-0.25,-0.1875,0.25,-0.1875,0.0625,1.25,1.625,1.125,1.375,0.875,2.0,1.25,-0.5625,-0.3125,5.75,-0.25,1.5,5.125,-14.8125,-2.5625,5.25,9.75,12.6875,-2.5625,13.3125,8.0,5.1875,-6.625,-3.4375,12.1875,0.125,8.3125,-6.6875,-0.875,5.9375,-7.375,-8.9375,-5.1875,-7.6875,-2.625,-0.125,-0.5625,-3.5625,-3.9375,-3.4375,-1.3125,-2.0,-0.25,0.375,-1.3125,-1.3125,-1.5625,-1.0,0.0,-1.0625,-1.125,-0.6875,0.125,0.6875,0.0625,-0.9375,-1.0625,-0.125,-0.4375,-0.5625,-0.75,-0.5,-0.0625,0.1875,0.25,-0.3125
doubleTap,1,1,-0.125,0.0,0.75,0.9375,-0.25,0.0625,0.0,1.125,1.75,0.0,-1.25,-1.375,-4.75,-4.8125,-6.1875,5.5,-0.5,6.0,2.1875,7.6875,0.8125,3.25,7.0625,5.5625,7.4375,-1.0625,-1.6875,22.8125,13.875,8.625,1.0,-4.9375,-5.4375,-1.75,-2.5625,-5.5625,-8.5,-5.6875,-3.5,-0.8125,-1.9375,-2.3125,-0.5,-0.125,1.4375,-0.25,0.875,0.75,0.8125,1.4375,0.1875,1.25,-1.5,-0.875,0.3125,-0.5625,-0.25
doubleTap,1,2,0.75,1.1875,-0.1875,0.0,0.25,0.5625,-2.25,-0.5625,-2.9375,-4.125,-1.3125,1.875,-5.5625,10.25,1.5625,6.9375,7.875,-6.1875,7.125,10.125,4.875,8.0625,3.1875,-16.25,14.0,2.5,3.25,8.25,7.0625,-8.0625,-5.75,-0.1875,-1.125,-4.4375,-5.625,-2.0,1.4375,2.8125,0.5,-3.6875,-1.9375,0.375,1.0625,0.875,-1.4375,-1.0625,-0.3125,-0.75,2.1875,-2.5625,0.375,0.1875,1.6875,-0.0625,0.3125,0.25,0.4375,-0.6875,-0.5,-1.4375,1.875,0.5625,0.3125
doubleTap,1,3,-0.25,-0.0625,0.3125,0.125,0.5625,0.6875,0.625,1.125,1.125,1.4375,1.375,1.625,1.1875,1.125,1.375,0.875,0.5625,0.5625,0.0,-1.625,-2.875,-3.0,4.0,10.6875,-4.8125,2.25,3.0,10.25,-0.0625,-7.3125,9.1875,8.0625,5.875,-5.125,0.0625,18.75,11.0,0.3125,-9.9375,-8.0,2.9375,0.25,-5.5625,-12.0,-6.375,-1.0625,2.4375,1.0625,-1.5625,-2.125,0.875,2.0625,1.0625,-1.0625,-1.8125,0.3125,0.1875,-0.5,-0.875,-0.3125,0.875,-1.25,0.8125,1.8125,-0.375,0.625,1.4375,0.9375,0.25,-0.75,-0.5,-2.0,1.75,1.0625,1.0625,0.25,0.0,0.3125,0.0625,-0.25,0.0625,0.4375,0.3125,0.375,0.5625,0.4375,0.3125,0.5625,0.8125,0.1875
doubleTap,1,4,-0.125,-0.3125,0.375,0.6875,1.5,1.125,-0.25,-0.125,-3.0625,-5.4375,0.625,3.5,-6.0625,8.125,4.5,13.625,12.5625,-9.3125,5.875,7.9375,-2.6875,-8.0,-11.875,17.125,18.25,4.75,-1.75,-8.3125,-7.6875,1.875,-1.0,-6.25,-10.0,-7.75,-3.3125,0.0625,-0.375,-1.875,-2.8125,-2.5,0.0625,1.3125,-0.125,-0.0625,0.8125,0.625,0.5,0.5625,0.125,1.5625,1.25,2.125,2.4375,1.375,0.9375,0.8125,-0.6875,-0.3125,0.6875,2.1875,-0.8125,0.875,0.0625,1.125,0.625,0.1875,-0.4375,0.5625,0.625,0.4375,-0.375,-0.0625,0.1875,-0.25,0.25,-0.3125,1.5,1.0625
doubleTap,1,5,0.3125,0.5,0.8125,1.0,1.0625,0.3125,-0.125,0.0625,0.5625,1.125,0.5,1.125,1.0,1.0625,0.5625,0.5,-2.0625,3.625,-0.3125,-3.5625,0.6875,-0.0625,-2.6875,6.6875,-2.625,4.375,5.6875,-1.75,1.9375,6.875,0.625,4.375,0.6875,2.6875,24.5625,10.8125,1.0,-4.4375,-5.375,0.125,2.9375,1.5625,-4.8125,-8.5625,-4.0625,1.25,1.125,-2.3125,-3.25,-1.9375,0.375,0.9375,-0.0625,-1.0,0.3125,0.625,-0.0625,1.4375,-0.5,0.5,0.625,0.0625,0.4375,0.1875,0.8125,1.5,0.9375,-1.125,-2.0,1.3125,1.5625,0.9375,0.5,0.4375,0.0,0.6875,0.1875,-0.4375,-0.125,-0.0625,-0.6875,-0.4375,-0.0625,0.0625,0.3125
doubleTap,1,6,0.375,-0.0625,-0.1875,0.0625,-0.625,-0.75,-0.3125,-0.125,0.125,-0.0625,-0.25,0.125,-0.1875,0.5,0.375,0.5625,-0.4375,-2.0,0.875,-1.25,-4.25,0.0625,-3.25,-3.625,-2.375,4.9375,0.75,7.4375,3.1875,-5.3125,6.125,3.25,1.625,4.4375,-6.6875,-17.9375,20.6875,16.25,8.875,10.3125,-3.75,-5.8125,3.0625,1.125,-2.0,-8.5625,-4.0625,-0.1875,1.125,-0.3125,-2.625,-2.625,-0.9375,0.25,-0.125,-1.75,-1.9375,-1.6875,0.6875,1.0,3.3125,-1.25,-0.6875,1.0,1.5,1.375,0.1875,-0.5,0.5,-1.3125,0.25,0.4375,0.375,-0.1875,0.8125,0.75,0.125,-0.1875,-0.25,-0.1875,-0.4375,-0.5625,-1.1875,-0.5625,-0.75
doubleTap,1,7,0.0625,0.1875,0.1875,-0.125,-0.25,-1.9375,-1.25,-4.875,-8.0625,1.1875,-1.25,-0.25,4.0625,-2.0,0.125,5.25,-0.375,-1.5625,3.9375,-4.5,0.1875,-3.875,-8.9375,16.0,14.8125,9.875,2.9375,-6.0,-6.375,3.0625,-2.0625,-5.5625,-7.125,-2.0625,2.5,1.6875,0.5,0.0,-0.5625,1.25,1.1875,-0.5625,-0.25,0.3125,1.3125,0.875,-0.0625,0.25,1.1875,0.4375,-0.6875,1.3125,-0.1875,-0.8125,-1.1875,-0.4375,-0.3125,0.25,1.125,0.3125,1.1875,-0.3125,2.125,-0.875,1.125,0.0625,-0.0625,-0.125,-0.1875,0.1875,0.0,0.0625,-0.1875,-0.5625,0.5,-0.375,0.125,-1.3125,-1.0,-0.6875,-0.1875,-0.25
doubleTap,1,8,-0.0625,0.0,0.1875,0.125,-0.625,-0.625,-3.125,-0.3125,-2.5625,-5.0625,-2.1875,-2.9375,3.375,-5.8125,-1.6875,4.5625,-0.875,-1.625,3.625,3.1875,3.625,-1.0,-12.4375,6.4375,20.4375,7.75,8.125,2.6875,1.0,-3.0625,-5.3125,1.6875,0.1875,-0.5,-0.1875,0.125,0.5,1.0,0.375,-0.9375,-1.0,-1.875,-0.75,-2.5625,-2.8125,-1.875,-1.5625,2.5625,-0.375,-1.75,-1.25,-0.125,2.375,1.0625,0.4375,-1.6875,-0.6875,0.3125,-0.3125,1.0,0.0625,0.4375,1.0625,0.75,-0.5,-0.375,-0.375,-0.5,-1.1875,-1.0625,-1.5,-0.125,-0.625
doubleTap,1,9,0.1875,0.3125,0.4375,0.375,-0.4375,-0.125,-0.1875,-0.125,-0.1875,0.5625,0.1875,0.0,0.625,-0.1875,-2.25,2.0,-2.125,-2.9375,-4.9375,6.625,1.0625,4.125,-2.9375,1.125,2.4375,-2.0625,5.6875,-5.875,-3.25,-4.625,7.8125,20.375,12.4375,4.3125,-3.5,-6.875,-6.625,1.9375,-0.5625,-4.5,-5.8125,-0.3125,3.0,4.0,1.0625,-2.4375,0.0,1.5625,0.375,-0.625,-1.125,-0.1875,2.6875,1.5,1.0,-1.1875,-1.125,-1.25,-1.125,-0.1875,0.625,0.375,-0.5,0.5,-0.0625,-1.9375,-0.25,-0.8125,-0.5,-0.6875,-0.5,-0.5625,0.1875,0.375,0.5,0.6875,0.6875,0.8125,-0.125,-0.5625,-0.4375,-0.125,-0.5,0.3125
fist,2,0
fist,2,1
fist,2,0,-0.25,-0.25,-0.375,-0.1875,-0.375,-1.125,-1.0,-1.0,-1.1875,-1.3125,-1.125,-1.1875,-0.875,-0.5625,-0.625,-1.125,-0.375,0.9375,1.5,1.0,0.8125,0.75,1.0,1.125,1.0625,0.5625,0.5625,0.25,-0.25,-0.25,0.0,0.0625,-0.0625,-0.25,0.0,-0.1875,-0.5625,-0.6875,-0.6875,-0.6875,-1.125,-0.3125,0.0625,0.0625,-0.0625,-0.1875,0.3125,0.5625,1.0,0.875,1.4375,1.1875,1.875,2.5,2.5625,1.3125,1.3125,0.8125,1.875,1.5,1.25,1.5625,1.8125,2.1875,2.0,1.6875,1.875,1.4375,1.5625,-0.875,0.4375,1.6875,2.875,2.0,0.75,-2.0625,0.1875,2.6875,1.1875,2.3125,3.5,3.3125,3.375,2.0,-0.625,-1.625,-1.4375,-2.6875,-2.9375,-5.375,-3.0,-0.4375,-1.5,-0.5,1.1875,-0.125,0.375,0.1875,2.5625,0.75,0.25,1.0625,1.0625,0.6875,1.375,2.375,1.125,0.5625,1.1875,0.5,0.0,-1.9375,-0.5625,0.5,0.875,-1.1875,-1.3125,1.375,0.25,0.0625,-0.875,-0.5,1.125,0.875,-0.6875,-1.4375,-1.3125,-0.3125,-0.125,-1.125,-1.125,-1.375,-3.0,-2.0625,-0.5,2.6875,-1.9375,-5.0,-0.8125,1.625,2.25,4.0,4.5,0.0625,-1.375,0.5625,3.5625,1.0625,0.1875,0.875,-0.5625,4.625,2.25,1.125,1.3125,2.5,5.0625,3.9375,1.0,0.9375,1.75,1.375,1.4375,1.875,2.4375,1.5625,1.1875,0.125,0.25,0.6875,-0.8125,-1.0,-0.375,2.0,1.25,-0.1875,-0.375,0.0,1.9375,0.3125,-0.75,0.375,1.4375,2.9375,2.8125,1.5,0.5625,1.125,2.375,2.1875,-0.875,-1.8125,-1.5,-0.5625,0.1875
fist,2,1,-1.4375,-1.875,-2.0625,-1.6875,-1.0625,-1.0625,-1.5625,-0.875,-0.75,-0.125,-0.625,-1.0,0.25,0.3125,0.3125,0.125,0.125,0.0,0.0,0.625,-1.375,-4.0625,-2.125,-3.375,-1.875,3.625,4.875,2.75,0.625,-1.75,0.5,4.5,1.4375,-1.25,-2.3125,0.875,1.4375,0.125,-2.5,-1.75,-0.3125,-2.1875,-3.625,-3.1875,-2.125,-1.875,-2.125,-3.25,-0.625,0.0625,-0.75,-1.125,0.25,2.5625,1.875,1.0625,0.25,1.3125,4.0,0.875,0.875,0.25,2.3125,1.1875,0.4375,-1.1875,0.5625,3.125,0.9375,-1.5,0.3125,4.75,-0.125,-2.125,-2.0625,2.0625,2.25,-0.375,-1.75,-0.1875,1.0625,-1.0625,-1.375,-1.125,-2.1875,-1.5625,0.9375,2.25,2.0625,-1.75,-3.1875,-0.75,2.375,2.75,1.125,-0.375,-0.5,0.1875,-0.625,0.5625,0.8125,1.0,1.8125,1.25,0.875,0.625,0.25,-0.8125,1.375,2.1875,1.4375,-0.5,-0.6875,0.0625,1.0,1.3125,0.4375,-0.125,-0.4375,0.75,1.1875,-0.375,-1.8125,-0.5,1.25,1.375,1.0625,0.9375,1.125,1.125,0.3125,-0.3125,-0.125,0.625,1.5,0.3125,-1.5,-2.25,-1.5,-1.0,-0.4375,-0.3125,-1.0625,-0.875,-0.6875,-1.375,-1.25,-0.875
fist,2,2,-0.0625,0.0625,0.1875,0.6875,-0.25,0.375,-1.6875,-1.4375,-0.0625,-0.5,-0.8125,-1.3125,-1.25,-1.4375,-0.4375,-0.75,-0.6875,-1.75,-1.1875,2.5625,3.0,-0.8125,-2.0,2.875,4.8125,0.75,-1.6875,-0.375,2.375,-0.3125,-1.4375,-2.9375,-0.9375,1.625,0.3125,-0.375,-0.5,-0.125,-0.0625,-0.9375,-0.8125,-0.25,-1.4375,-1.375,-3.0,-2.375,0.375,-1.625,-1.8125,-1.5,-0.75,-0.75,-1.125,-1.8125,-0.875,1.4375,1.25,-2.1875,-4.9375,-1.375,-0.125,-1.6875,-2.0625,1.5,0.5,0.25,0.375,-0.4375,0.0,-1.3125,-0.9375,1.0625,1.0,0.8125,-1.0,0.5625,2.3125,2.125,1.25,0.0,0.6875,1.5625,1.1875,-0.5625,1.25,3.1875,3.5,2.375,2.3125,2.125,1.875,2.3125,1.5625,-3.5625,-7.0,-4.6875,-0.8125,-0.0625,-1.5625,-5.0625,-2.25,2.1875,0.125,0.875,0.0625,0.375,0.4375,-1.4375,0.875,0.6875,0.0625,0.625,1.375,0.6875,0.0625,0.875,1.375,0.0,1.1875,4.0625,4.8125,2.5625,1.625,1.4375,3.0625,4.3125,3.75,0.125,-0.125,1.6875,1.75,0.25,-0.0625,-0.875,-0.625,-0.6875,-2.1875,-1.875,-2.5625,-2.5,0.0625,1.125,0.25,-1.3125,-1.1875,-0.375,-0.6875,-1.0,-0.5,0.0,0.375,0.8125
fist,2,3,-0.9375,-0.6875,-1.5,-1.375,-1.5625,-1.4375,-0.4375,-0.6875,-0.3125,-0.3125,0.125,0.4375,0.75,2.6875,1.625,-0.5625,1.25,0.6875,-2.5625,-1.75,-0.1875,0.25,0.375,0.625,2.3125,0.5625,-2.25,-1.375,0.6875,3.1875,-1.0,-0.6875,-0.5625,2.5,1.625,0.1875,-1.3125,-0.9375,0.0625,-0.4375,-1.625,0.125,-0.1875,0.0625,-1.0,-1.4375,-1.1875,-0.4375,-0.4375,-2.4375,-1.0625,0.5625,-1.5,-3.0,-2.1875,-1.375,-1.125,0.0,-1.125,0.0,2.0625,1.4375,1.375,0.75,0.625,3.0,0.5625,-1.25,0.5625,3.1875,2.9375,2.375,2.375,3.0625,3.0625,1.5,-1.3125,-2.375,-2.3125,-2.125,-1.625,-1.375,0.3125,3.25,2.25,2.125,0.9375,1.875,2.125,1.125,-1.5625,-0.3125,1.875,-1.5625,-4.125,-1.125,0.5,1.1875,1.0625,0.1875,-2.5,-6.875,-9.375,-9.5,-5.4375,-5.1875,-0.625,0.9375,0.0625,2.0,1.5625,2.4375,3.0625,2.25,1.5,3.25,2.6875,4.8125,2.625,1.5,3.25,4.25,2.6875,1.75,2.1875,0.6875,-1.0625,-3.0,-2.625,-1.5625,-0.125,2.25,1.25,-0.0625,-1.3125,0.3125,1.375,-0.25,-2.25,-1.875,2.1875,2.875,2.375,0.375,3.4375,5.5625,6.125,4.6875,2.4375,1.375
fist,2,4,1.5625,1.3125,0.9375,0.5,-0.1875,-0.0625,-1.1875,-0.9375,-1.0625,-0.625,0.25,-0.0625,0.3125,-0.3125,0.4375,0.4375,-0.4375,-1.75,-1.0,-1.125,-0.0625,-0.625,-1.375,-1.625,-1.625,-1.0,-0.375,0.1875,-1.0625,-2.75,-4.8125,3.125,8.1875,2.625,-0.6875,2.8125,8.0,4.75,4.25,2.1875,3.1875,3.5625,4.8125,4.125,2.375,3.25,3.3125,3.5,2.6875,2.625,1.8125,1.6875,1.25,0.8125,1.625,1.1875,0.125,0.25,-0.625,0.625,-1.1875,-1.875,-0.75,0.25,0.5,-0.4375,1.4375,1.625,1.3125,-0.375,2.0,-0.5,-3.6875,-3.9375,-3.0625,-2.0,-0.8125,-1.0,-0.75,-1.5625,-0.375,0.5625,-0.4375,-1.5625,-0.6875,0.0,-0.3125,-0.25,-1.25,0.5625,2.6875,2.625,2.25,2.6875,0.0,-1.5,1.125,5.3125,2.5625,0.1875,3.1875,4.625,4.375,-2.0,-0.625,1.9375,1.0625,3.125,2.625,4.9375,9.0625,7.4375,-1.8125,-7.8125,-2.25,4.1875,2.5,2.9375,0.4375,1.125,-0.25,1.0625,-0.25,-0.875,-0.0625,-1.125,-4.0625,-2.5625,-3.375,-4.6875,-3.875,-3.6875,-4.5625,-6.0625,-6.875,-3.875,-1.6875,-1.6875,-2.375,-1.25,1.25,0.0,-1.375,-0.8125,-0.1875,-1.125,-2.8125,-1.5625,0.8125,2.625,0.875,-0.4375,1.125,1.5625,0.0,-0.8125,-1.3125,-0.25,0.1875,-0.4375,-2.0,-0.8125,0.25,0.25
fist,2,5,0.125,3.125,2.875,1.375,0.625,0.125,0.3125,1.375,0.5,-0.875,-1.5625,-0.4375,-0.25,0.25,1.0625,0.625,0.6875,0.5,-0.1875,0.3125,0.4375,0.5,0.6875,1.25,1.6875,0.0,-0.375,0.1875,0.875,-2.75,-4.25,2.0625,5.8125,7.4375,5.5625,-0.5,-3.1875,-0.4375,0.75,0.25,-4.5,-3.75,-1.8125,-3.0625,-4.75,-2.9375,0.3125,0.75,-2.3125,-2.3125,1.0625,0.4375,-0.0625,-1.6875,-0.625,0.75,-0.1875,-2.5625,-2.5625,1.75,1.75,1.75,0.3125,8.0625,13.625,14.375,15.6875,14.4375,8.375,4.9375,-0.625,-1.5,-1.5625,-2.875,1.25,6.5,1.6875,-2.4375,-0.375,0.875,2.1875,-1.625,-1.875,2.5,5.1875,0.875,-2.625,-0.25,3.875,-2.125,-3.3125,-2.25,-0.125,1.4375,-0.0625,2.6875,3.9375,4.375,2.625,-0.1875,-1.3125,0.5625,-3.3125,-13.6875,-16.5,-8.625,3.0,0.9375,-3.1875,-0.3125,-1.375,-0.5,0.875,3.875,-0.8125,-3.4375,-1.8125,1.125,0.75,-0.75,0.0625,2.5625,3.4375,0.125,-2.0625,-0.5,1.0,-1.875,-3.4375,-2.375,-0.6875,0.625,-0.375,-3.5,-4.3125,-2.25,1.4375,2.0,-1.5,-1.5625,1.125,1.25,0.125,-1.5625,-2.375,-1.9375
fist,2,6,-3.0,-3.125,-3.6875,-3.25,-1.5625,-0.75,-1.0,-1.625,-1.8125,-2.0625,-1.9375,-1.875,-1.9375,-0.375,-1.1875,-1.6875,-1.125,-1.5,-1.4375,-1.1875,-0.6875,-0.6875,-1.3125,-3.375,-4.625,1.6875,4.6875,4.3125,-1.1875,-3.125,-0.4375,2.625,0.25,-4.0625,-2.5,1.25,1.0625,0.75,-0.5625,-0.375,-0.75,-0.1875,0.125,3.25,0.5625,1.25,0.375,3.1875,-0.5,2.1875,3.625,3.75,3.1875,-0.625,-1.125,-0.875,2.8125,1.375,-1.3125,0.5625,2.125,1.75,0.75,-0.3125,0.8125,2.75,1.875,0.5625,1.3125,2.25,1.9375,1.3125,0.125,0.1875,0.3125,1.3125,3.875,2.3125,-3.8125,-5.375,-3.0,1.0625,1.4375,1.6875,1.6875,1.3125,5.375,5.4375,3.75,3.25,2.1875,1.3125,0.75,0.75,2.375,2.5625,-0.0625,0.0,1.75,1.125,0.25,1.6875,0.6875,1.0625,0.25,0.0,-0.9375,-0.6875,0.25,0.5,-0.5625,-1.0625,-1.5,-1.9375,-4.125,-4.5625,-4.4375,-3.0,-3.5625,-4.3125,-4.375,-3.5,-2.25
fist,2,7,-0.8125,-0.9375,-1.0625,-0.4375,-0.5,-1.0625,-1.0,-0.75,-0.1875,0.3125,0.125,-0.6875,0.25,0.75,0.0625,0.375,0.0,0.1875,0.125,0.4375,0.1875,0.25,0.9375,0.75,1.25,0.9375,0.75,-1.25,-0.625,3.1875,3.6875,3.3125,2.8125,3.5625,-3.4375,0.625,7.3125,5.8125,3.9375,4.0625,4.5625,4.9375,2.125,3.5,4.875,1.8125,0.9375,0.125,-0.375,-0.75,-1.0,0.4375,-0.8125,-0.4375,-0.0625,0.3125,-0.625,-1.6875,-1.375,-0.625,0.625,0.3125,-0.9375,-0.75,1.1875,0.25,-1.1875,-1.6875,0.0625,0.0,-0.8125,0.3125,-0.1875,-0.375,-1.375,0.25,-0.0625,-0.5,1.25,2.0,2.3125,1.5625,1.9375,2.0,1.3125,0.375,1.9375,2.25,1.3125,-1.625,-1.5,-0.125,2.4375,2.75,2.0,-3.875,-0.75,2.5,4.1875,-0.5,-2.5,-2.5625,1.125,1.75,0.875,0.9375,-0.0625,-2.1875,-1.4375,-0.375,-0.5625,-0.625,-1.125,-0.5,0.5625,-0.75,-5.25,-6.75,-4.9375,-4.25,-3.9375,-4.125,-3.0625,-1.0,0.75,1.8125,3.625,3.0,1.9375,1.8125,2.125,-0.5,-0.75,-0.9375,-0.5,-0.4375,-0.8125,-0.9375,0.4375,0.8125,-1.3125,-1.25,0.625
fist,2,8,-0.5625,-0.4375,-0.1875,-0.0625,0.0625,0.0,-0.375,-0.6875,-0.1875,0.0,-0.1875,-0.3125,-0.25,-1.1875,-0.4375,-1.1875,-1.125,-1.625,0.0625,1.5625,2.5,-0.6875,-2.375,-0.375,0.0625,1.6875,2.1875,1.375,-0.375,3.0625,3.1875,7.3125,7.1875,6.6875,8.5625,3.0625,3.0,2.375,2.3125,3.5625,3.0,2.9375,0.875,2.375,6.6875,5.6875,1.5625,-0.75,-2.875,-4.9375,-5.4375,-4.6875,-4.1875,-3.3125,-6.0625,-7.5625,-8.4375,-9.875,-10.0,-12.8125,-8.875,-7.75,-4.125,-6.25,-6.125,-2.0625,0.75,0.0625,-3.3125,-1.5625,0.0625,2.5,-1.4375,-5.0,-2.125,10.875,16.8125,4.5625,-3.875,-3.1875,1.5625,3.4375,-0.3125,3.875,4.125,2.25,-0.8125,-0.1875,3.25,3.4375,4.875,5.5625,5.3125,1.5625,0.0,1.4375,3.3125,3.375,2.375,2.375,5.0625,8.9375,5.5,0.6875,1.5625,-0.1875,0.25,1.5625,1.0625,-0.5,-2.875,-1.875,2.5,3.0,1.0625,-1.75,-3.0,-0.625,0.625,-1.5,-4.5625,-5.375,-2.0,-1.5625,-2.5625
fist,2,9,-3.5,-3.0625,-3.625,-4.25,-4.125,-3.0625,-2.375,-1.875,-1.4375,-1.3125,-0.3125,0.375,0.625,1.125,1.375,2.25,2.5,2.1875,2.1875,2.8125,3.625,3.8125,4.3125,3.25,2.375,1.4375,0.625,0.5,-0.125,0.25,0.8125,1.375,2.6875,2.625,2.5,2.6875,2.25,1.75,2.0,5.8125,7.5,-3.5,0.5625,1.75,0.25,-0.9375,0.0,-0.875,-1.0625,0.875,3.75,2.125,-2.125,1.75,1.375,-0.9375,0.75,2.1875,1.625,0.5,0.25,0.625,2.0625,0.1875,-0.5625,-3.25,-2.0,-2.5625,0.5,-3.0,-1.1875,-0.8125,-0.75,-0.9375,-1.8125,-4.9375,-1.25,-2.125,-2.25,-1.6875,0.0625,1.0,-1.8125,-0.6875,-0.9375,-0.375,-1.1875,-2.375,-1.1875,0.875,1.25,1.5625,-1.0625,-0.25,1.75,4.125,2.6875,1.6875,-0.6875,-0.375,-0.4375,0.375,1.8125,3.25,0.875,-2.5625,-3.0,1.1875,6.375,4.375,-9.4375,-9.3125,-2.125,0.375,2.875,1.5625,0.6875,0.5,-0.0625,2.6875,2.25,3.1875,3.625,-0.9375,1.5625,2.0,-1.125,-1.0625,-0.5,0.5,2.1875,-0.125,-0.625,-1.8125,-3.375,-3.5,-3.8125,-2.0,-1.875,-2.375,-1.875,-2.375,-2.375,-2.625,-3.875,-2.0,-2.3125,-6.9375
fingersSpread,2,0,0.75,0.625,0.1875,0.25,0.375,0.5625,0.625,0.5,0.0625,0.3125,0.375,0.625,0.5,0.8125,1.0625,0.625,0.4375,0.4375,0.625,0.4375,0.375,-0.125,0.9375,3.4375,0.0625,-2.5,1.8125,10.75,4.1875,0.75,2.625,6.625,4.6875,2.0625,3.8125,1.4375,3.3125,4.125,7.9375,7.125,4.5625,3.875,0.9375,1.9375,3.1875,-1.0625,2.0625,4.1875,3.6875,1.625,-3.75,-0.4375,2.0625,-0.9375,-7.375,-5.5,0.8125,-0.625,-6.1875,-5.1875,1.25,-0.6875,-4.0,-5.25,0.0625,1.5625,-3.0,-5.5625,-4.9375,-2.875,1.5,-1.6875,-5.5625,-7.6875,-11.25,-1.8125,6.5,7.6875,-0.75,-5.5625,1.625,8.75,3.1875,-7.75,-6.375,-2.6875,1.875,4.6875,2.5,0.1875,-1.1875,-0.5,2.625,5.375,-0.5625,-5.6875,-5.5,-1.8125,1.8125,2.0625,0.4375,-0.0625,0.0,1.5625,0.625,-0.375
fingersSpread,2,1,-0.375,-0.75,0.0,0.1875,0.3125,-0.375,-0.0625,0.1875,0.4375,0.9375,0.4375,-0.375,-1.5,-1.5625,-0.125,-0.3125,-2.0625,-4.5625,-2.875,0.1875,-2.125,-2.4375,-1.0625,1.625,-0.1875,1.875,2.1875,0.6875,3.625,2.0,0.9375,1.9375,5.125,4.4375,0.0625,1.0625,1.8125,1.5625,0.625,0.75,2.625,2.0625,2.75,2.4375,-1.75,-1.0,1.25,2.75,2.0,-1.625,-2.3125,2.0,4.375,3.125,0.625,-0.375,0.6875,1.9375,2.375,0.0625,-0.8125,1.6875,3.125,2.0625,-1.0,0.5625,0.5,2.25,0.5,-1.75,-0.875,-0.25,0.5,-0.5,-2.5,-0.125,-2.375,-2.125,-2.5625,-2.3125,-2.875,-5.125,-7.0,-9.875,-7.5625,-1.0625,8.1875,2.1875,-11.6875,-9.0,-0.25,5.4375,4.5625,-2.0,-8.125,-6.25,-0.875,1.9375,1.5,-0.875,-1.5,-1.75,-2.25,-2.25,-2.125,-1.0625,-0.4375,0.5625,-0.375,-1.1875,-1.3125,-0.5,-0.3125,-0.1875,-0.125,-0.375,-1.125,-1.4375,-1.1875,-1.1875,-0.4375
fingersSpread,2,2,0.4375,0.6875,0.5625,0.125,-0.375,-0.5,-0.1875,0.25,-0.0625,-0.1875,-0.25,0.0625,-0.375,-0.3125,0.375,1.0,0.6875,0.1875,1.0625,0.6875,1.25,0.1875,-0.8125,-0.1875,2.0625,2.125,1.5,2.25,2.25,3.375,1.8125,1.375,2.875,3.125,-1.5,-0.4375,0.625,-0.1875,-0.375,-4.125,-5.25,4.8125,6.8125,2.9375,-0.5625,-2.0,-1.75,-1.75,-2.75,-3.0,-0.5,2.25,2.875,1.75,-0.1875,0.625,1.6875,3.5,1.25,2.0,7.8125,8.1875,-0.875,-5.0625,-4.8125,-3.0,-3.125,-5.5625,-2.625,0.0,-0.0625,-3.5,-5.75,-5.25,-2.625,-2.3125,-5.25,-8.9375,-5.0625,-2.125,4.375,-0.0625,-5.75,-5.3125,1.5,8.4375,7.125,3.75,0.8125,-0.125,0.9375,2.6875,3.25,1.375,-2.4375,-5.625,-1.0,2.9375,3.1875,2.5,-0.4375,-1.4375,-1.3125,-0.75,-0.8125,-2.0,-2.125,-1.5625,-0.75,-0.875,-0.375,-0.125,-1.0625,-1.6875
fingersSpread,2,3,-0.5625,-0.625,-0.9375,-0.9375,-1.125,-1.4375,-1.4375,-2.0625,-1.8125,-1.75,-1.125,-0.75,-1.0,-0.6875,-0.4375,-0.5,-0.1875,1.1875,0.8125,-1.625,-0.9375,1.125,0.375,-0.5,3.6875,3.25,2.25,2.3125,1.375,0.0625,1.3125,2.0,2.4375,2.4375,0.9375,10.0625,16.3125,10.1875,7.9375,5.5,1.8125,-0.0625,2.1875,-0.375,-1.0625,2.8125,5.125,1.0625,-2.375,-4.25,-0.125,-1.9375,-4.75,-2.125,2.125,1.0625,-4.625,-2.9375,-0.6875,-0.4375,-3.75,-6.5,-2.875,-2.0,-1.0,-2.75,-0.6875,-0.125,-1.0625,-1.0,-0.0625,-0.125,0.5625,-0.625,-1.6875,0.5625,-0.375,-0.9375,-3.875,-6.6875,-10.125,-4.6875,-1.5,2.5625,-0.75,-4.4375,-6.4375,-7.25,-8.3125,-9.0625,-9.8125,-7.875,-4.5625,-2.8125,-5.75,-8.0,-4.375,-0.75,0.375,-0.25,-3.3125,-2.375,0.0625,1.8125,2.5,2.9375,2.6875,2.4375
fingersSpread,2,4,1.75,1.625,1.3125,1.3125,1.1875,0.8125,-0.0625,-0.375,-0.125,-0.5625,-0.25,0.5,-0.125,0.1875,-0.5625,-7.875,-0.75,1.8125,-4.5,0.1875,2.1875,2.5,-1.1875,-1.0625,0.9375,0.5625,-1.1875,-1.6875,0.0625,1.5625,1.375,1.75,1.75,4.125,5.0625,4.1875,3.8125,3.5,2.875,3.4375,2.9375,4.25,2.875,3.125,3.4375,3.6875,3.5,1.9375,1.9375,3.125,-0.5625,-0.75,0.3125,2.125,6.125,3.375,0.625,3.3125,4.5625,5.0625,2.6875,1.875,2.125,3.9375,3.4375,1.625,-1.4375,-0.375,1.625,1.125,-0.6875,-1.0625,1.625,4.3125,4.8125,4.5,4.1875,7.8125,6.625,8.875,8.0625,6.3125,4.0,2.25,5.3125,5.1875,2.25,1.6875,2.75,3.4375,3.125,1.8125,1.1875,2.25,2.4375,0.0,-1.4375,-0.1875,0.0625,-0.1875,-0.625,-4.75,-10.125,-12.4375,-12.6875,-9.1875,-5.0,-0.9375,-6.625,-8.6875,-4.3125,2.0,10.5,7.6875,-1.375,-5.5625,-3.1875,0.0625,2.375,0.5625,-1.3125,-3.125,-3.0,-0.625,0.0625,-1.6875,-3.125,-1.1875,0.875,1.8125,3.0625,1.125,0.5,0.5,-0.0625,-0.125,-1.3125,-1.1875,-0.8125,-0.875,-0.625,-1.9375,-3.5625,-4.625
fingersSpread,2,5,0.1875,-0.375,-1.6875,-4.0,-6.0625,-6.5,-6.5,-6.75,-5.5625,-4.25,-1.5,0.5625,2.375,4.1875,5.25,4.5625,0.1875,1.0,1.375,3.4375,1.9375,0.5,0.375,1.25,3.25,3.5,1.4375,0.125,0.1875,1.6875,2.5,0.6875,0.9375,-2.0,8.1875,4.0625,1.5,4.625,7.4375,4.4375,1.5625,3.125,5.875,6.0,4.8125,3.4375,2.875,3.875,2.0625,1.5,0.8125,2.0,4.875,3.4375,1.375,1.375,2.3125,4.8125,4.5,4.5625,7.3125,7.5625,7.625,9.75,7.6875,7.4375,8.0625,6.9375,7.5,7.0,5.9375,3.8125,3.4375,5.3125,4.3125,3.4375,3.1875,5.25,4.8125,-3.0,-5.0,-2.5625,-0.75,-4.875,-4.75,-1.3125,4.0,4.6875,-0.5,-2.9375,0.8125,-0.0625,-4.5,-6.625,-10.3125,-8.125,-1.6875,3.1875,-5.25,-8.875,-11.625,-1.5,9.25,9.0625,-1.5625,-12.625,-10.1875,-1.875,4.0,6.8125,5.25,0.6875,-0.5625,2.125,3.9375,4.25,2.5,0.6875,2.4375,4.9375,6.0,6.9375,7.9375,6.8125,5.9375,5.125,3.0,2.0,1.625
fingersSpread,2,6,3.5,3.25,3.1875,3.0625,3.1875,3.4375,2.75,2.8125,2.625,2.3125,2.3125,2.875,3.4375,3.1875,2.3125,1.5,0.875,1.375,1.75,1.375,1.25,-1.125,-1.1875,0.0,1.25,-1.375,-4.3125,-3.3125,0.75,1.0625,-0.6875,-1.4375,-1.5,2.1875,-0.25,-1.5625,-1.375,-0.5,3.3125,7.25,9.3125,10.5625,11.8125,13.6875,8.125,4.75,1.9375,0.375,-1.125,0.875,5.3125,4.9375,2.25,1.75,1.0,0.875,-1.0,-4.3125,-3.875,-4.625,-4.125,-2.875,-4.0,-2.3125,1.3125,2.8125,3.5,2.5,2.625,3.125,3.75,2.0,0.0,0.875,2.4375,3.3125,1.125,-0.6875,3.4375,3.0625,2.25,-1.625,-0.875,1.6875,1.0625,1.5,-0.625,-1.4375,2.375,6.6875,0.6875,-1.5625,0.8125,2.0625,3.9375,3.75,1.8125,1.25,4.625,5.25,1.75,-3.0,-3.0,1.6875,1.75,0.875,-1.5625,-1.625,2.5,6.0625,0.875,-9.5,-9.0,-6.0,-3.125,-0.375,-1.5625,-4.4375,-2.125,0.375,2.9375,3.625,1.4375,-0.0625,-0.0625,1.625,0.8125,0.1875,0.8125,1.5625,2.4375,3.375,3.375,3.125,2.5
fingersSpread,2,7,-2.375,-2.5625,-2.0625,-1.625,-1.25,-0.5625,-0.1875,0.625,1.75,1.4375,1.125,0.9375,1.3125,1.125,0.875,0.875,0.1875,0.5625,-1.5,-3.375,-2.1875,-1.125,-1.875,-2.5625,-3.375,-3.0,-1.875,-2.6875,-2.4375,-1.5625,-0.8125,-0.125,0.0,3.9375,6.8125,7.625,8.8125,7.25,3.625,3.3125,2.25,0.5625,2.3125,6.5,10.375,11.625,6.75,1.75,0.0625,-1.4375,2.125,4.3125,-2.75,-6.25,-0.4375,3.5,3.9375,1.3125,0.5625,3.25,0.6875,-2.0,-3.4375,-2.3125,-2.375,-4.125,-1.4375,0.375,0.875,2.0625,1.6875,2.25,3.4375,3.1875,3.1875,4.875,10.875,12.0,6.875,2.25,2.75,4.1875,6.3125,2.375,-1.5,-0.9375,2.0625,4.8125,2.6875,0.0625,-1.0,1.3125,4.4375,1.9375,1.375,-0.5625,1.9375,2.1875,-2.75,-2.6875,14.3125,10.5,6.625,7.1875,4.3125,5.3125,4.75,6.75,6.75,1.375,-1.125,-1.875,0.1875,-0.0625,-5.6875,-6.5,-5.625,-5.5625,-5.75,-3.625,0.125,1.3125,-6.125,-13.125,-15.8125,-12.8125,-7.25,-3.6875,-5.5,-9.1875,-8.9375,-5.6875,-2.375,-1.25,-2.9375,-6.4375,-7.25
fingersSpread,2,8,2.75,2.0625,1.0625,-0.25,-1.8125,-2.75,-3.375,-3.1875,-3.0625,-3.0625,-3.0,-2.875,-2.6875,-1.8125,-1.25,-1.75,-1.75,-2.1875,-2.25,-1.6875,-1.3125,-2.125,-1.75,-1.0625,-0.625,-0.375,-0.625,0.1875,0.1875,0.375,3.75,4.4375,-3.625,-4.5,-2.5,-0.875,2.375,-0.25,-2.8125,-2.5625,-2.3125,-5.25,-5.375,-4.6875,-6.0,-4.0625,0.625,5.4375,4.375,-0.5625,2.3125,4.6875,-1.625,-5.875,-5.75,-4.0,-6.0625,-5.75,-7.3125,-7.25,-3.0625,2.4375,2.625,3.1875,7.8125,10.8125,12.1875,4.4375,1.0,3.0625,2.3125,-0.25,-1.5,2.0,3.375,-1.875,-6.4375,-3.5,2.6875,4.6875,-1.75,-1.8125,3.0,3.8125,1.0,-0.3125,0.1875,0.4375,-1.375,-0.375,-1.1875,-1.0,-0.3125,1.0625,-3.5,-4.8125,-2.875,-0.0625,0.625,0.5625,-3.1875,-3.0625,1.8125,3.625,3.9375,-0.8125,-9.5,-5.1875,0.4375,2.0625,5.6875,3.625,-0.625,-4.125,-1.25,2.125,3.625,3.75,4.0,4.0,3.6875,3.1875,2.8125,2.5,3.25,1.75,-0.375,-1.5,-0.75,1.375,2.9375,1.9375,0.375,0.1875,0.75,1.75,1.0,-0.3125,-1.875
fingersSpread,2,9,1.25,-0.3125,-0.875,0.4375,2.4375,3.75,3.375,2.0625,1.5625,1.5,2.5625,2.0625,2.125,2.625,3.0625,2.8125,1.5,-0.375,-1.1875,-0.9375,-0.25,0.75,2.875,7.625,11.0,12.6875,13.0625,13.8125,13.25,9.75,5.0,2.375,0.25,-2.125,-3.4375,-3.5625,-4.1875,-6.5,-8.1875,-8.5625,-8.9375,-8.25,-7.5,-5.875,-4.375,-2.9375,-2.125,-1.0,-0.9375,-0.75,-0.3125,-2.875,0.125,-1.375,-1.5,0.1875,4.3125,5.875,2.9375,-1.125,0.0,0.8125,2.1875,2.625,5.8125,8.3125,7.6875,4.875,6.4375,6.5625,2.25,2.3125,4.5625,6.5,4.75,2.875,2.875,1.5625,-1.3125,-3.875,-3.4375,-4.875,-4.1875,-0.6875,-0.25,0.5,-2.625,-4.5625,-3.375,-2.4375,-8.875,-19.1875,-15.75,-6.9375,-2.625,-2.25,-1.1875,1.8125,1.4375,-0.625,-0.875,-2.5,-1.875,-0.375,-0.5625,-4.3125,-6.1875,-2.625,-2.0,-2.5625,-4.5625,-0.5625,-0.6875,-3.375,-3.125,2.3125,5.25,2.3125,0.875,-3.5,-0.375,5.75,6.6875,4.125,4.0,5.625,5.75,7.125,5.875,3.6875,2.125,3.3125,4.5,4.0,3.375,2.25,2.4375,3.0,0.6875,-0.375,-0.75,-1.9375,-2.25,-3.25
waveOut,2,0,-0.3125,0.625,-0.125,0.625,0.75,-0.0625,0.375,0.0,0.375,-0.3125,-0.25,-0.75,-1.125,-0.75,-0.375,-0.3125,-0.0625,-0.3125,-0.375,-0.0625,0.375,0.0,-0.375,0.25,2.0625,6.5,12.4375,14.375,17.25,10.0625,3.125,-2.1875,-1.375,-0.1875,-0.3125,-0.5625,1.625,-0.625,-3.375,-2.25,-1.8125,-4.5,-6.3125,-9.6875,-13.375,-14.25,-16.3125,-16.9375,-17.8125,-15.0625,-13.3125,-11.0,-7.3125,-6.5625,-6.9375,-8.3125,-10.5,-11.625,-10.125,-6.3125,-2.3125,1.4375,-0.75,-1.375,-0.4375,-0.625,0.25,0.5,1.75,5.75,11.625,12.1875,11.6875,6.1875,9.5625,14.5625,5.8125,-10.125,-10.4375,1.625,20.8125,7.625,-21.5,-26.1875,-15.5,8.0625,10.6875,-13.6875,-26.8125,-13.1875,2.5,7.6875,-1.25,-6.75,0.375,5.25,4.8125,-1.3125,-2.6875,-0.375
waveOut,2,1,-1.4375,-1.6875,-1.75,-0.8125,-0.0625,-0.5,-0.8125,-0.8125,-0.5,-0.4375,-1.125,-1.3125,-0.5,0.625,0.8125,0.5625,2.1875,2.9375,3.0625,2.3125,1.8125,1.375,5.875,12.5625,13.4375,5.375,4.875,23.625,24.9375,11.0625,-9.3125,-6.0,1.375,-2.875,-1.5625,0.375,-1.9375,-1.8125,3.5625,3.125,-0.125,-1.0625,-2.25,-1.75,-0.3125,-2.375,-3.25,-3.125,-3.875,-6.6875,-12.375,-17.4375,-21.0625,-19.25,-13.875,-6.125,-4.875,-9.625,-9.375,-9.4375,-6.9375,-2.8125,-5.5,-7.5,-10.1875,-9.375,-5.3125,-2.125,-3.1875,-4.375,-3.125,-1.0625,0.25,0.3125,-0.625,-0.5,-2.75,-0.1875,-0.1875,0.375,0.1875,2.4375,-0.6875,1.75,3.1875,6.1875,5.0625,2.125,4.6875,5.6875,8.6875,12.25,12.125,9.6875,4.8125,6.25,8.1875,1.8125,-9.625,-14.25,-6.8125,7.8125,9.375,-7.9375,-27.75,-35.875,-19.375,-7.25,-4.9375,-15.875,-25.3125,-18.125,-8.8125,-0.875,-1.25,-6.4375,-8.1875,-6.6875,-3.0
waveOut,2,2,-4.8125,-4.5625,-5.0625,-4.125,-3.75,-2.9375,-2.125,-1.4375,-0.6875,0.4375,1.375,0.5,0.625,0.75,0.875,1.125,0.9375,0.625,0.625,4.0625,5.25,4.3125,4.8125,8.8125,27.0625,37.5,26.6875,15.3125,14.75,25.8125,17.5,2.5625,4.25,5.5625,0.5,1.375,10.75,8.5625,5.0625,6.625,5.875,5.6875,1.6875,-4.6875,-12.125,-17.625,-18.75,-15.125,-7.875,-7.4375,-8.625,-10.125,-9.875,-3.8125,0.6875,-3.6875,-11.875,-15.1875,-15.5,-13.6875,-13.0,-15.1875,-14.8125,-8.375,-2.625,-1.125,-2.0,-3.9375,-4.6875,-2.125,1.0,0.4375,-0.375,1.75,3.1875,4.9375,4.625,2.1875,-2.9375,-5.125,-7.375,-5.8125,-5.1875,-7.5,-9.6875,-11.0,-9.25,-11.9375,-17.125,-16.4375,-8.5,-1.375,-0.3125,2.8125,-1.75,-1.5625,2.75,2.4375,3.5,5.6875,11.0625,13.125,6.5,4.8125,6.5625,9.5625,8.5625,-4.125,-18.625,-27.1875,-15.5625,-0.4375,4.5625,-14.125,-20.5625,-10.375,1.0625,5.1875,-2.0,-7.625,-5.4375,-1.0625,5.6875,5.8125,10.75,5.3125,0.8125,2.8125,5.375,4.375,3.0625
waveOut,2,3,-3.75,-2.75,-2.25,-1.0625,-0.625,-0.375,-1.125,-1.1875,-0.875,-0.5625,-0.25,0.6875,-2.625,-3.1875,-2.8125,-2.125,-0.375,0.9375,1.6875,2.4375,2.3125,2.0,1.125,-0.8125,-1.75,-1.4375,-0.625,0.75,4.125,6.6875,11.75,12.0,12.5625,14.875,19.75,19.75,12.1875,2.25,2.5625,6.6875,7.8125,5.9375,5.375,3.375,0.5625,2.0625,2.9375,0.3125,-2.0625,-5.4375,-7.5,-12.9375,-18.9375,-22.625,-23.6875,-22.1875,-19.6875,-19.9375,-19.1875,-18.0,-17.4375,-15.75,-12.3125,-6.875,-7.4375,-6.9375,-6.9375,-8.625,-6.1875,-1.875,0.0,1.9375,1.6875,3.25,3.3125,2.0625,2.5,1.0,1.4375,-1.375,0.6875,2.3125,2.0,0.875,2.3125,3.8125,5.0625,12.625,13.4375,9.0,6.125,-2.25,-0.3125,6.4375,8.75,4.1875,-1.5625,-12.625,-17.875,-10.1875,-0.25,-0.25,-1.75,-3.75,-2.0,2.5,5.4375,6.75,5.5625,3.0625,1.3125,0.875,1.6875,2.25,2.25,1.875,2.5625,3.3125,3.5625,3.4375,3.0625,1.6875,0.8125,1.125
waveOut,2,4,0.3125,0.25,0.25,0.0625,0.1875,-0.375,-0.3125,-0.375,-0.1875,-0.375,-0.75,-1.375,-1.1875,-0.5,-0.375,-0.75,-0.6875,-0.625,-0.75,-1.4375,-1.25,-1.0,-0.125,1.0625,0.9375,-1.0625,-0.4375,0.875,0.5625,0.9375,1.5625,3.3125,4.4375,3.5,0.6875,0.25,0.75,1.25,3.9375,4.4375,3.0625,1.5625,5.3125,6.875,7.1875,7.8125,8.5,9.5,3.5,0.375,0.5,6.3125,10.6875,6.0625,0.5625,1.4375,4.125,5.1875,6.0625,6.9375,6.9375,6.9375,8.5,9.5,5.4375,4.375,0.375,-2.4375,-1.9375,-1.875,-3.5,-7.1875,-8.25,-8.4375,-6.9375,-9.1875,-11.125,-11.0,-7.4375,-5.75,-11.8125,-15.375,-14.0,-9.125,-7.625,-9.75,-11.375,-6.8125,3.0,6.8125,-1.5,-7.6875,-8.75,-1.625,-3.1875,-6.8125,-4.5625,-2.25,-0.9375,0.0,-3.125,-4.0,-4.3125,-2.0,-0.5625,0.125,-0.1875,0.1875,4.75,12.1875,18.1875,8.5625,0.3125,-0.75,-2.4375,2.5625,8.1875,5.25,-3.8125,-11.6875,-11.5,-6.9375,-4.6875,-2.875,-4.375,-6.5,-7.4375,-6.875,-5.5,-5.4375,-7.0625,-3.5,3.5,8.1875,6.9375,7.0,6.6875,5.5625
waveOut,2,5,0.0,-0.4375,-0.625,-1.0,-0.9375,-1.375,-2.0,-1.875,-1.3125,-0.9375,-0.4375,0.25,0.5625,0.6875,1.0,1.0625,0.875,0.4375,0.125,-0.25,-0.875,-1.8125,-2.0625,-2.0,-1.4375,-1.5,-1.5,0.0,0.625,0.375,3.0,9.625,15.625,13.1875,5.8125,4.1875,9.375,13.6875,6.875,1.5,3.1875,5.5,4.5,1.0625,0.625,-0.375,-1.1875,-2.1875,-1.8125,0.25,-4.0625,-6.125,-5.875,-6.3125,-6.25,-8.0625,-11.0,-13.625,-11.75,-9.0,-8.9375,-7.1875,-7.0,-3.8125,2.5,3.625,-6.8125,-13.125,-12.75,-5.4375,2.375,-0.1875,-9.75,-13.8125,-17.9375,-14.5625,-8.8125,-8.875,-9.3125,-5.4375,-2.5,0.0,-3.25,-6.5,-5.1875,-3.0,-2.0,-3.4375,-4.875,-2.875,-5.875,-5.1875,-3.3125,-1.6875,-0.3125,-1.25,0.9375,4.5625,3.75,5.8125,4.5,3.9375,3.0625,11.5625,12.625,3.75,4.9375,5.375,12.5,18.6875,15.6875,3.0625,-4.75,-10.125,-5.625,3.4375,5.6875,1.1875,-3.75,-2.4375,1.5,4.375,7.0625,7.1875,5.5625,5.375,5.125,4.4375
waveOut,2,6,-0.9375,-0.75,-0.875,-0.25,-0.0625,-0.25,-0.0625,-0.3125,-0.125,0.125,0.9375,2.3125,11.625,15.4375,14.125,12.125,9.6875,14.9375,18.9375,15.6875,7.4375,1.625,3.1875,2.9375,3.375,2.875,4.3125,6.0625,4.8125,0.125,0.25,2.6875,2.125,-3.375,-5.9375,-3.875,-1.625,-4.5625,-12.8125,-16.0,-12.0625,-7.0625,-6.8125,-11.375,-13.8125,-13.125,-12.1875,-9.625,-6.625,-4.1875,-5.4375,-4.5,-3.0,-1.875,-4.0625,-5.5625,-9.6875,-10.25,-7.3125,-4.0,-3.625,-3.5625,-6.25,-5.9375,-1.6875,0.3125,2.75,-0.1875,-0.0625,2.25,0.375,-0.625,-2.3125,-7.125,-17.75,-17.4375,-10.75,0.8125,1.8125,-5.5625,-5.0,-1.4375,0.5,-5.1875,-9.5625,-2.5625,8.875,10.625,8.9375,8.0625,12.25,15.375,14.0,7.875,3.5625,0.375,4.625,7.0,2.9375,3.0625,1.75,3.0625,3.5625,7.5,6.375,5.3125,6.9375,5.5,7.0625,10.8125,14.125,13.875,8.1875,2.8125,2.0,1.6875,0.0625,-1.5625,-2.625,-5.3125,-9.5625,-8.0,-5.125,-2.875,-5.0,-7.1875,-6.5,-3.3125,-0.6875,-0.375,-0.25,-0.4375,-2.1875,-2.5625,-2.0,-0.3125,-0.125
waveOut,2,7,-1.6875,-1.9375,-2.25,-1.875,-1.875,-2.0,-2.125,-1.5625,-1.0625,-1.1875,-1.3125,-1.0625,-1.0,-0.9375,-0.5625,-1.0,-0.6875,-0.8125,-1.25,-1.4375,-0.5,0.5625,0.5,-0.0625,-0.0625,1.125,1.125,-3.5,-0.125,6.5625,6.0,-0.1875,-1.75,8.6875,13.375,5.0,-5.875,-4.3125,-0.125,0.125,-2.375,-0.875,1.5625,4.3125,0.75,-2.0,-3.875,-5.5625,-6.875,-4.0,-1.5,4.0,3.1875,-1.9375,-3.625,1.5,0.9375,-2.3125,-0.625,0.5625,2.0,3.875,3.375,2.25,0.0,-2.0,-2.3125,1.625,2.9375,2.0,3.0,4.875,2.9375,-1.125,3.875,2.375,0.125,-5.5625,-9.125,-3.125,2.875,-2.5625,-4.375,-5.0,-2.75,0.75,-1.0625,-5.375,-6.5,-1.875,1.3125,-2.5,-4.625,-5.1875,-3.375,-1.375,-4.25,-3.8125,-7.0,-5.75,-6.5,-5.4375,-6.625,-8.5625,-10.1875,-6.6875,-4.125,-5.75,-6.5625,-7.1875,-4.4375,-0.5625,-2.25,-2.5,0.9375,13.375,15.1875,4.375,-5.25,-1.375,2.8125,5.625,1.625,0.4375,-0.5,-5.6875,6.8125,13.25,4.9375,0.1875,-3.0625,1.4375,9.625,5.0625,2.25,-1.25,-3.125,-0.9375,0.1875,0.9375,0.75,1.8125,-5.6875,-10.8125,-10.625,-6.125,-2.375,1.5,-3.25,-7.125,-4.375,0.0,2.1875,-0.125,-5.0625,-4.125,-0.375,2.0,0.6875,-2.0625
waveOut,2,8,0.75,0.6875,0.5625,0.0,-0.6875,-0.375,0.8125,2.625,5.0625,6.0,5.8125,8.625,10.1875,10.0625,9.25,2.875,0.1875,4.0,3.3125,1.1875,1.4375,2.75,2.375,4.4375,6.0625,5.0,5.1875,4.1875,7.8125,6.375,2.8125,1.5,0.5625,2.25,-2.1875,-8.3125,-7.75,-8.875,-13.25,-12.9375,-13.875,-14.0,-12.25,-11.625,-8.875,-9.5,-11.875,-13.5625,-16.0,-15.625,-15.875,-15.625,-13.0625,-11.3125,-10.8125,-9.875,-7.9375,-4.4375,-4.375,-7.625,-8.125,-7.125,-4.0625,-1.6875,0.0,-1.0,-3.125,-2.6875,-1.9375,-1.625,-4.25,-3.8125,-2.25,-0.8125,-0.625,-1.0625,-1.625,-2.9375,-2.25,-0.75,-0.25,-0.375,-0.3125,-0.8125,1.25,4.75,9.0625,10.5,8.1875,4.0,2.3125,10.875,15.3125,8.4375,-2.125,-0.5,5.4375,5.0,-1.125,-5.4375,1.9375,9.0625,17.25,-5.1875,-4.75,2.8125,10.25,17.125,15.5,10.875,7.125,5.9375,6.375,5.8125,3.625,0.25,-0.375,-0.375,-1.0,-1.5625,-0.9375,-1.25,-1.0,-1.3125,-1.5,-0.9375,-1.75,-2.3125,-1.625,-1.5625
waveOut,2,9,-0.625,-0.375,-0.125,0.0625,0.0625,0.3125,-0.375,-0.8125,-0.75,-0.75,-0.875,-0.875,-1.375,-1.5,-1.0625,-0.375,0.6875,-0.125,1.125,-0.125,-1.25,-0.4375,0.25,-1.5,-1.75,-2.875,-1.6875,1.625,1.6875,3.6875,2.5625,1.0,2.3125,4.0,6.6875,7.4375,8.4375,8.3125,7.4375,6.625,7.25,7.6875,7.3125,5.25,4.4375,2.5,0.9375,2.9375,3.5,4.125,4.125,3.0,-2.0,-6.0625,-6.5625,-5.5625,-10.5,-13.75,-7.8125,-5.1875,-2.3125,-1.25,-3.5625,-4.625,-5.8125,-7.5625,-9.125,-10.875,-14.0625,-19.125,-21.4375,-23.125,-23.5625,-21.5,-19.625,-18.5625,-17.25,-12.25,-11.9375,-8.625,-9.375,-9.6875,-5.4375,-5.3125,-8.3125,-13.125,-11.5,-8.25,-7.1875,-6.625,-12.4375,-21.5625,-29.375,-24.6875,-15.4375,-19.6875,-20.5625,-14.1875,-5.375,2.25,3.5,3.125,-2.1875,-2.9375,-0.625,-1.625,-4.6875,-7.8125,-7.1875,-3.0,2.3125,-1.8125,-5.5,-4.0,1.3125,-0.8125,-2.75,-2.4375,2.0625,9.75,9.3125,7.0,4.625,7.5,12.1875,14.4375,11.6875,16.25,24.6875,30.625,12.125,13.625,17.0,29.5625,41.5625,25.875,13.9375,12.0,10.625,8.375,6.0,7.875,7.4375,0.875,-3.0625,-1.1875,1.0625,5.625,12.3125,18.5625,17.125,12.9375,9.8125,8.0625,6.8125,5.4375,4.6875,-1.4375,-4.875,-1.3125,2.5,4.75,5.25,4.375,1.6875,0.875,2.0625
waveIn,2,0,2.9375,3.875,3.375,1.25,0.8125,2.4375,-0.5625,-4.8125,-10.875,-17.5,-20.0,-16.0,-0.375,-0.75,-6.1875,3.4375,19.0625,32.375,31.9375,23.3125,21.5,25.9375,28.0625,26.3125,21.6875,18.5625,19.5,22.625,20.6875,17.0625,13.5625,11.4375,10.3125,12.0,8.875,7.0,9.5,11.75,7.9375,3.4375,2.5625,1.8125,1.0625,0.125,-1.0,-1.8125,0.8125,3.5625,3.75,2.875,2.5625,2.4375,3.3125,2.4375,1.3125,2.1875,1.625,1.3125,0.1875,-0.625,-3.9375,-5.3125,-3.5,-4.625,-4.875,-4.875,-4.0,-4.0,-3.4375,-6.1875,-10.3125,-15.9375,-18.5625,-22.8125,-19.6875,-9.1875,-7.25,-8.875,-6.6875,4.125,20.9375,27.9375,13.875,-1.1875,2.9375,18.75,22.0,6.9375,-3.0,-3.125,-1.75,2.625,3.4375,-3.5625,-9.5,-8.1875,-1.875,3.625,-0.25,-8.1875,-7.9375,-3.5625,0.375,1.625,-0.75,-2.375,-1.25,0.5625,0.4375,-0.125,-0.75,-1.625,-2.0625,-1.3125,-1.4375
waveIn,2,1,-1.875,-1.4375,-1.4375,-1.5625,-0.375,0.5625,0.125,-0.3125,-1.0,-1.0,0.5,1.0,0.25,-0.0625,-1.4375,0.125,2.0,-3.6875,-1.0,4.5,5.6875,-3.25,-5.5625,-2.125,-2.0,-2.875,-5.4375,-6.3125,-6.8125,-8.1875,-9.625,-9.5625,-10.5,-8.125,-3.125,-0.625,11.1875,16.0,17.875,12.1875,12.5,11.25,8.8125,7.8125,7.5625,8.5625,4.5625,2.3125,2.625,2.8125,3.25,4.75,8.6875,12.75,14.5,11.0,10.0625,10.0,7.5,4.25,2.125,4.3125,5.875,4.6875,1.5,-4.5625,-6.5,-0.875,0.25,-0.0625,-5.0625,-5.375,-2.9375,-2.4375,0.3125,-2.125,-2.9375,-2.4375,-2.9375,-4.3125,-3.3125,-4.625,-5.6875,-14.9375,-23.6875,-28.3125,-22.375,-17.9375,-8.75,-2.4375,6.5625,13.125,8.8125,4.25,1.75,12.0625,28.125,20.6875,2.625,-1.5625,10.0,15.875,-9.5,-15.875,-11.1875,-12.875,-5.4375,4.0,2.625,-4.8125,-7.8125,-1.0625,0.625,-4.25,-6.5625,-2.9375,1.5,-1.5625,-2.75,0.1875,1.5625,1.1875,-0.5,-3.0,-2.8125,2.375,4.6875,-3.5625,-8.5,-4.4375,-0.75,0.125,0.75,2.5625,0.125,-3.8125,-4.875,-3.875,-3.9375,-5.1875,-4.9375
waveIn,2,2,-2.25,-2.625,-2.875,-3.125,-3.0,-3.875,-4.0625,-3.125,-2.8125,-2.375,-4.1875,-12.25,-15.875,-15.3125,-20.8125,-16.75,-12.125,-13.8125,-12.0625,-2.3125,17.5,19.3125,5.5,-1.25,-1.4375,4.5,2.8125,-5.0,-7.5625,0.8125,4.625,4.1875,1.5625,1.3125,0.4375,3.0625,4.5625,5.5,5.75,6.875,6.5625,4.5,3.375,0.625,-2.125,-7.75,-7.9375,-4.75,-4.875,-2.6875,1.375,4.625,7.0625,5.875,5.6875,6.1875,4.0,2.8125,0.0625,1.0625,4.9375,9.25,8.75,5.25,5.5625,5.0625,5.1875,1.6875,0.875,0.625,1.5,2.875,-0.3125,-5.5625,-8.9375,-10.1875,-8.0,-8.3125,-12.25,-16.25,-20.375,-19.9375,-21.1875,-16.25,-16.0625,-15.0625,-16.5625,-8.1875,1.8125,5.6875,5.125,3.4375,9.5,13.3125,13.625,11.5,16.1875,15.75,11.5,4.5,-1.5,5.4375,8.3125,4.5,0.5,-1.3125,-1.6875,2.8125,-1.5625,-5.0625,-2.8125,-1.3125,-1.375,-5.75,-5.4375,-1.3125,2.75,3.375,-0.375,-4.875,-3.0,1.5,4.8125
waveIn,2,3,-1.75,1.25,1.0625,1.6875,4.6875,5.5625,4.0,2.75,2.25,-0.125,-3.125,-4.6875,-2.8125,-1.5625,-0.9375,0.625,1.5625,0.4375,-2.8125,-4.625,-6.0,-13.9375,-20.4375,-21.5,-26.0625,-33.4375,-33.6875,-18.3125,0.0625,23.0,43.75,51.9375,56.625,57.75,52.875,51.5,47.0,37.3125,29.125,22.4375,19.25,15.375,14.3125,14.25,10.0625,6.6875,0.25,-4.875,-7.375,-1.9375,1.25,-0.875,-4.5,0.25,1.5,2.75,0.8125,1.3125,4.4375,4.9375,4.5625,-0.0625,0.375,0.9375,2.125,-0.375,-3.8125,-5.625,-6.0625,-7.1875,-8.125,-10.625,-12.8125,-11.8125,-11.1875,-9.75,-9.6875,-5.1875,-4.125,-0.875,0.125,-1.4375,-1.4375,-6.625,-14.3125,-16.625,-16.0625,-13.25,-14.625,-14.6875,-21.6875,-26.875,-20.875,-5.8125,9.0625,11.8125,7.5625,6.875,13.4375,14.375,7.3125,5.25,15.4375,23.0625,20.375,8.75,4.75,7.75,11.1875,9.75,0.25,-9.9375,-13.9375,-11.875,-6.3125,-4.625,-8.625,-11.25,-3.0625,2.125
waveIn,2,4,6.0,5.6875,4.75,5.0,6.5,8.9375,12.25,13.9375,11.4375,6.4375,3.8125,4.125,4.75,3.125,0.75,0.4375,0.4375,-1.6875,-1.9375,-0.9375,-1.3125,-4.5625,-6.3125,-3.75,-3.8125,-6.0625,-7.8125,-4.625,-3.0625,-7.0625,-14.375,-19.0625,-24.8125,-34.5625,-32.4375,-25.625,-20.8125,-17.25,-14.0,-9.375,-11.0625,-16.25,-19.8125,-12.0625,6.125,41.8125,46.25,36.0625,15.875,9.1875,9.5,18.0,26.125,28.4375,26.25,21.5625,16.25,14.5625,17.0625,13.625,9.3125,6.5,4.25,-4.5,-9.9375,-10.875,-6.125,-2.3125,-0.5,-2.3125,0.25,1.1875,2.0625,1.625,-2.5625,-3.375,-3.6875,-3.0,0.0,2.25,1.0,-3.4375,-2.0625,4.5,5.0625,2.1875,-2.875,-7.5625,-7.0625,-4.5,-1.375,1.75,-0.125,-2.4375,-3.6875,-1.625,-0.375,1.375,0.375,-2.5625,-2.3125,-3.875,-2.5625,0.6875,2.25,1.8125,0.5625,0.5625,-3.875,-8.1875,-10.5,-12.0,-9.5625,-6.0,-7.1875,-13.5625,-16.875,-23.25,-24.375,-19.875,-11.9375,-15.5625,-16.6875,-11.1875,-0.25,10.875,18.5,24.0,27.4375,22.25,14.0625,6.75,10.5,12.9375,12.25,2.5,-5.375,-5.3125,0.5625,1.6875,-2.75,-5.0625,-2.1875,-0.875,-1.3125,-3.3125,-3.4375,-1.0625
waveIn,2,5,0.4375,0.875,-0.25,-1.375,-2.4375,-5.25,-5.875,-4.8125,-4.8125,-3.5625,-2.8125,-1.5625,-0.875,0.5625,1.8125,2.25,3.5,4.0625,4.0,3.8125,3.0625,1.625,0.0625,-1.25,-1.1875,-1.3125,-0.875,0.0,0.375,1.6875,2.125,2.625,1.6875,1.1875,1.125,0.0625,-0.8125,-2.6875,-4.5625,-4.375,-3.5,-2.75,-2.125,-2.375,-2.5625,-2.6875,-7.0625,-12.3125,-15.125,-16.375,-21.1875,-31.625,-33.75,-28.8125,-24.5625,-18.875,-0.0625,23.0625,28.1875,14.25,0.125,0.125,4.8125,9.1875,8.9375,5.9375,10.875,18.25,24.3125,17.6875,12.5,8.8125,11.25,9.75,7.5,6.0625,6.125,-2.4375,-4.0625,-1.1875,1.0625,-1.0,-0.75,1.3125,4.0625,-0.375,0.125,2.25,5.25,9.6875,14.6875,12.8125,13.125,16.6875,21.8125,21.1875,16.3125,11.625,8.375,0.875,-2.4375,2.0625,3.9375,3.625,-0.125,-6.75,-12.4375,-14.875,-18.25,-18.0625,-14.6875,-10.375,-4.625,-0.0625,1.25,4.375,11.3125,17.875,32.125,43.0,42.875,25.4375,10.25,10.6875,14.4375,8.5625,-2.5625,-0.9375,2.6875,0.0,0.6875,1.125,-2.375,-9.5,-12.125,-10.375,-8.625,-6.375,-2.375,0.8125,1.4375,-0.9375,-3.5625,-3.75,-3.9375,-6.625,-7.25,-5.6875,-4.0625,-3.3125,-3.0625
waveIn,2,6,0.375,0.625,1.3125,0.9375,0.5625,-0.6875,-0.3125,-1.25,-2.8125,-4.375,-6.6875,-6.5,-5.875,-8.3125,-15.125,-15.9375,-16.4375,-14.5625,-14.75,-12.9375,-15.6875,-13.0625,-9.9375,-10.125,-14.5,-10.5625,-3.0,2.8125,4.8125,2.75,2.125,1.0,-1.3125,-3.875,-5.4375,-5.625,-6.3125,-3.875,3.125,6.0,8.5,10.0,9.4375,3.375,-0.5625,-9.1875,-10.3125,-2.4375,2.5,13.875,18.9375,24.6875,23.3125,19.75,18.125,13.5,9.1875,5.8125,3.875,3.1875,6.0625,4.5625,6.125,8.0,6.1875,5.5625,5.5,6.25,9.5,15.875,14.4375,12.625,14.5,14.5,13.1875,9.4375,2.6875,-4.125,-4.375,-9.0625,-8.0625,-11.4375,-16.0625,-19.625,-21.8125,-21.5625,-20.875,-19.0625,-16.875,-16.5,-11.0,4.3125,18.625,25.1875,22.75,18.8125,19.25,21.9375,20.375,16.0625,16.125,16.125,7.625,2.75,0.25,-2.75,-6.9375,-7.6875,-7.0,-5.1875,-2.4375,-2.6875,-2.5,-4.0625,-3.0,-3.0,-2.0625,-3.5625,-1.25,1.625,1.0625
waveIn,2,7,1.0,0.5,-0.0625,-0.4375,-1.25,-0.4375,1.5,0.625,-1.5,-5.1875,-3.875,-2.0,-1.75,-1.8125,-3.5625,-4.5,-4.6875,-6.0,-6.0625,-5.375,-5.1875,-4.3125,-4.6875,-4.5,-5.25,-5.1875,-7.375,-8.75,-6.25,-5.25,-6.75,-8.0625,-6.5,-4.75,-5.5625,-7.625,-10.0,-9.875,-11.3125,-8.3125,-8.5625,-8.0,-3.875,-1.4375,1.3125,3.125,3.875,3.8125,4.25,-4.5,-5.0,-1.0625,3.25,7.1875,8.0,7.1875,9.9375,9.6875,14.5,17.0,13.0,5.5625,3.5,6.6875,7.1875,8.3125,9.0625,11.25,10.6875,5.6875,4.4375,2.6875,0.8125,1.1875,-0.1875,0.25,-1.125,-1.25,-0.75,-1.4375,-0.9375,-0.4375,-2.5,-1.0625,-1.9375,-1.0,-1.625,0.3125,-0.5625,-2.5,-3.125,-4.25,-5.25,-1.375,-3.0,-4.9375,-5.125,-8.0,-8.875,-7.375,-6.6875,-8.875,-10.625,-12.1875,-11.9375,-11.5625,-13.0625,-9.125,-14.125,-1.0,13.125,24.0,29.9375,36.625,38.1875,26.375,8.875,-9.625,-6.375,3.25,11.3125,4.5,-6.25,-7.4375,-3.5625,2.75,5.0625,2.375,-4.125,-6.875,-5.0,-2.3125,0.0,-1.25,-2.875,-6.8125,-8.3125,-5.1875,-2.125,0.0,0.125,-3.0,-3.5,-1.6875,-0.375
waveIn,2,8,-0.4375,-0.4375,0.0625,-0.3125,-0.625,-0.75,-0.5,-1.0625,-1.125,-1.0625,-1.0625,-1.875,-2.375,-1.5625,-2.25,-3.9375,-6.125,-6.0625,-1.5,-1.4375,-2.5625,-8.0,-8.1875,-1.375,-0.625,-4.8125,-9.0,-9.3125,-7.6875,-12.875,-15.8125,-11.9375,3.875,23.625,20.5,9.3125,3.3125,8.4375,15.625,23.0625,26.9375,22.9375,14.6875,13.1875,7.4375,9.0,15.125,22.25,21.125,13.5,7.8125,8.0,5.5,1.375,-1.3125,1.75,9.1875,17.375,28.9375,36.5,39.0,38.3125,28.4375,21.0625,17.875,18.125,18.0,20.125,23.25,16.9375,14.3125,8.5625,6.125,3.875,-0.1875,-5.6875,-9.5625,-12.25,-16.0,-17.125,-21.5,-24.0625,-23.125,-21.6875,-21.1875,-22.75,-22.125,-27.0625,-22.9375,-21.0625,-23.5,-24.625,-33.25,-16.5625,7.4375,15.875,2.6875,-5.8125,2.4375,23.625,42.3125,41.1875,24.6875,11.125,0.3125,-2.8125,-1.5,3.25,-4.4375,-16.25,-19.125,-12.8125,-6.3125,-2.0625,-4.0625,-9.6875,-10.1875
waveIn,2,9,-6.75,-2.375,-1.125,-0.6875,-0.1875,1.25,2.5625,2.5,1.9375,-0.375,-3.5,-5.0625,-6.375,-7.625,-9.5,-10.625,-13.25,-10.0,-3.75,-6.875,-12.75,-23.5625,-23.25,-17.4375,-15.9375,-13.0625,-10.625,-7.25,2.25,9.375,6.125,3.625,8.4375,15.0625,15.0625,15.0625,-12.75,28.625,36.75,38.375,29.8125,19.0,19.0625,16.0625,15.25,13.375,8.625,12.5,14.1875,8.0,5.625,5.9375,6.5,4.375,4.25,5.1875,0.5625,1.125,-1.5,-4.5,-8.0,-14.5625,-13.0,-3.125,1.3125,4.875,3.625,3.4375,4.0,1.0625,-3.125,-6.0625,-11.125,-13.5625,-15.6875,-17.5625,-20.6875,-25.25,-28.9375,-30.25,-36.375,-32.3125,-24.0,-9.5625,6.1875,13.6875,17.5625,16.6875,18.375,15.625,12.75,6.125,2.3125,1.75,-0.375,2.8125,0.25,-3.1875,-4.9375,-5.4375,-5.0625,-3.125,-2.25,-1.1875,-2.4375,-2.3125,-3.0,-5.0,-3.5625,2.25,5.25,2.3125,-1.75,-3.3125,-3.0,-2.0,-1.625,-2.25,-3.25,-2.125,-0.875,0.875,1.3125
doubleTap,2,0,1.375,2.0,2.125,2.1875,2.9375,2.75,2.75,2.25,2.0625,2.1875,1.1875,0.5625,0.125,-0.25,-0.4375,-0.375,-0.5,-0.375,-0.625,-0.4375,0.0,-1.5625,-2.25,-1.8125,-1.375,-1.625,-2.4375,-2.5625,-2.125,-0.5625,-0.375,0.9375,0.875,-13.75,-1.3125,3.4375,10.9375,13.4375,-0.375,-2.8125,3.1875,2.8125,-3.1875,-8.9375,-4.5,-1.6875,8.1875,10.1875,6.1875,2.25,-2.3125,2.4375,0.4375,-0.8125,-0.25,0.0625,-1.375,-2.3125,-2.8125,-1.25,-1.0,-1.5625,-1.5,-1.9375,-1.625,-0.875,-0.375,0.0,-0.25,-1.125,-1.8125,-1.0,-0.9375,-1.0625,-0.75,-0.625,-0.25,-0.1875,-0.375,0.0,0.0,-0.125,-0.0625,-0.25,-0.0625,-0.25,0.75,0.875,1.0625,1.125,0.625,0.8125,1.5,1.0,0.6875,0.8125,1.125,1.375,0.5625,1.125,0.0,-0.0625,-0.375,-1.0,-0.6875,-0.8125,-0.5,-0.875,-0.875,-0.9375,-1.5625,-0.5625,-0.5,-1.0,-1.125,-2.125,-2.125,-2.0625,-1.25,-0.0625,-0.375,-0.0625,-0.125,-0.25,0.3125,0.375,0.5625,0.1875,0.75,0.5,-0.0625,-0.4375,-1.0,-0.5,-0.3125,-0.5,-0.1875,-0.375,-1.0,-1.4375,-1.0,-1.0625,-1.0625,-0.75,-0.375,-0.1875,0.75,0.3125,0.1875,0.8125,1.125,0.5625,0.375,0.625,0.5625,1.0,1.25,0.875,1.75,3.3125,-0.6875,-1.125,-5.5625,0.5,9.125,11.5,10.625,6.9375,3.8125,0.375,-0.75,6.0,-6.0625,0.375,-9.1875,-2.8125,5.25,10.1875,11.4375,1.6875,0.3125,2.8125,2.8125,-14.5625,-3.8125,4.0,-12.5625,-0.75,-5.125,-7.25,-1.875,0.125,-0.375,-0.4375,-2.5,-2.875,-1.625,-1.4375,-1.5,-1.6875,-3.0,-0.375,-0.4375,-1.1875,-2.9375,-2.0,-1.125,-1.0,-1.8125,-2.375,-2.8125,-2.375,-1.9375,-0.25,-1.1875,-1.25,-0.1875,0.6875,1.1875,0.875,-0.3125,-0.375,0.875,0.875,0.5625,-0.75,-1.0625,-1.25,-0.375,0.875,2.3125,2.6875,0.8125,-0.5625,-1.1875,-0.9375,-0.5,-0.5625,-0.75,-0.3125,0.4375,0.375
doubleTap,2,1,-2.0,-2.625,-2.375,-1.5625,-0.375,0.0,0.125,0.5,1.3125,1.1875,0.625,0.3125,0.0625,-0.625,-0.4375,-0.6875,-1.125,-2.1875,-2.9375,-3.4375,-3.4375,-1.9375,-0.9375,-1.375,-1.1875,-0.875,-0.8125,-0.9375,-0.3125,-0.125,-0.25,-0.625,0.0,0.75,0.1875,-0.5,-0.6875,-0.5625,-0.1875,-1.125,-0.75,-0.0625,0.5625,2.75,-7.3125,-3.875,-0.375,-8.5625,10.5,0.0,-5.3125,-2.4375,-1.8125,-6.375,3.0625,-1.3125,-1.0625,-23.5625,-14.5625,-2.5625,4.8125,2.3125,-5.8125,-9.25,2.125,-1.9375,-20.5625,-55.625,1.3125,-7.5,-4.0,-2.375,-24.625,-9.4375,6.0,6.8125,0.875,-2.8125,0.25,1.6875,2.5625,2.625,-0.75,-2.0,-0.0625,2.625,6.1875,4.8125,1.4375,0.5625,3.25,2.5,0.8125,-0.8125,-0.0625,0.875,-0.375,2.8125,1.375,1.5,1.375,1.25,-0.3125,0.0,1.3125,1.6875,0.8125,-0.8125,-0.1875
doubleTap,2,2,-2.375,-2.0,-0.9375,-0.75,0.0,0.75,1.0625,1.0,2.25,1.625,-0.4375,-1.625,-2.75,-0.6875,0.75,-0.75,-1.875,-2.8125,-4.375,-5.4375,-5.4375,-5.0,-3.75,-4.0,-3.1875,-2.125,1.75,1.125,0.5625,0.25,-0.3125,-0.125,2.1875,2.5,1.9375,0.4375,-0.375,-1.125,-0.625,1.25,2.5625,4.375,-3.125,-4.625,-5.1875,-6.8125,15.0625,5.9375,0.125,-1.3125,-11.3125,6.3125,-14.875,6.625,4.0,-30.375,2.25,14.0,9.9375,5.625,2.625,-3.1875,-15.9375,12.6875,-1.625,9.4375,0.8125,-9.75,-6.25,1.5625,7.625,5.375,0.75,2.25,2.9375,1.5,1.0,1.0,2.125,1.75,0.0,1.1875,0.5625,-1.1875,-0.9375,-0.375,0.0625,0.375,0.3125,-1.3125,1.875,0.375,0.3125,0.6875,1.125,1.875,2.0,0.75,0.75,0.625,1.0625,0.5625,-0.0625,0.25,-0.5625,-0.375,-0.875,-0.5625,-0.1875,-0.5,-0.25,-0.4375,-0.3125,-0.0625,-0.5625,-0.5,-1.0625,-1.0,-1.125,-0.375
doubleTap,2,3,-0.5625,-0.5625,-0.125,0.0625,0.5625,0.125,-0.25,0.4375,0.25,-0.0625,-0.1875,0.0,0.3125,0.0625,0.1875,0.4375,0.4375,0.375,0.0625,0.25,0.3125,-0.1875,-0.3125,0.1875,0.0,-0.125,-0.3125,-0.625,-1.375,0.25,1.25,1.125,-0.375,-1.0625,0.0,0.625,0.125,0.4375,0.0625,0.1875,-1.125,-2.375,-2.375,1.0625,2.1875,0.4375,-1.0,-1.75,-1.6875,-1.5,1.625,2.8125,0.8125,-6.6875,-3.125,0.5625,9.9375,18.125,12.4375,-5.5625,0.9375,3.3125,-8.1875,-19.0625,-5.6875,-0.4375,8.6875,9.0625,-2.3125,-10.6875,0.5,1.375,-4.9375,-2.9375,-3.875,-4.875,-3.9375,-2.0625,-3.0,-3.9375,-0.875,1.6875,0.6875,-1.875,-2.1875,0.625,1.5625,1.5625,0.0,0.9375,1.6875,2.3125,2.0,1.0,1.1875,0.875,0.875,1.0,2.125,0.6875,0.1875,0.5625,1.3125,0.25,-1.4375,-1.9375,-1.0625,-0.0625,-0.1875,-2.1875,0.5625,0.1875,-0.5625,-0.625,-0.6875,-0.1875,-0.375,-0.25,0.4375,0.4375,1.125,0.5,-0.0625,0.4375,0.5625,0.75
doubleTap,2,4,-0.8125,-1.0,-1.625,-1.75,-1.25,-1.1875,-1.625,-1.625,-1.4375,-1.0,-0.75,-0.5,-0.3125,-0.5625,-0.5625,-0.9375,-0.8125,-0.6875,-0.1875,-0.125,-0.1875,0.3125,0.3125,0.875,-0.1875,0.3125,0.375,0.3125,0.25,-0.1875,-0.3125,0.8125,0.9375,1.25,0.8125,0.0625,0.375,0.25,1.75,4.375,-5.5625,-11.625,-12.3125,6.5,18.75,9.6875,1.125,-6.4375,0.8125,-3.5625,-5.1875,7.25,-0.9375,14.125,28.8125,20.5625,9.375,-5.125,-3.5,-7.5625,-5.9375,-5.875,-4.5,2.25,1.5,-5.625,-6.875,-3.5625,-2.0,-2.5,-2.375,-1.75,-0.25,-0.125,-0.5625,1.375,-0.375,0.6875,2.625,3.0,2.5,2.25,-0.125,-0.5,-1.375,1.3125,-0.375,-1.0625,-1.0625,-0.4375,-0.1875,-0.25,0.5625,0.9375,0.125,-0.375,-2.625,-2.9375,-2.1875,-1.875,-1.75,0.25,0.75,0.75,0.25,-0.125,0.6875
doubleTap,2,5
doubleTap,2,6,-8.75,-8.75,-7.4375,-4.5625,-2.75,-0.75,0.6875,1.625,2.0625,2.3125,3.0,3.5625,2.5625,2.0625,2.9375,4.25,3.75,3.6875,3.9375,3.5625,3.125,2.25,0.9375,-0.125,-0.375,-0.5,-0.625,-0.625,-0.25,0.6875,3.25,5.6875,4.3125,2.25,0.25,-0.75,-0.5,-0.375,-1.4375,-3.3125,0.3125,-10.3125,-22.625,-4.375,1.6875,8.875,-6.5625,-5.125,-0.3125,-6.75,-21.25,-13.0,-0.8125,9.3125,10.6875,6.125,2.375,-7.0,0.375,7.625,-2.6875,1.4375,3.6875,1.9375,1.625,1.25,-2.25,-3.5625,-1.5,-1.6875,-0.3125,-0.125,-0.75,-0.3125,-0.125,-0.1875,0.125,-0.0625,1.25,-1.3125,-1.625,-2.3125,-0.8125,-1.25,-1.1875,-1.0625,-0.4375,-1.0,-1.625,1.0625,-0.0625,0.5,-0.375,-0.5625,-1.125,-0.375,-0.3125,-0.625,-0.5625,-0.4375,0.0,0.3125,0.25,-0.375,-0.625,-0.1875,0.125,-0.3125,0.0625,1.1875,1.0625,0.375,-0.4375,-0.4375,-0.25,0.25,-0.6875,-0.875,-0.375,-0.1875,-0.5625
doubleTap,2,7,0.0,-0.25,-0.3125,0.6875,-0.0625,0.75,0.625,0.375,-0.25,-0.375,-0.3125,-0.75,-0.9375,-0.5,0.3125,0.8125,0.5,0.5625,0.0625,0.4375,0.6875,0.4375,0.4375,-0.0625,0.0,0.1875,0.25,0.25,0.25,1.6875,2.25,2.1875,0.5625,1.5,0.125,-14.75,-9.375,-1.0625,5.0,20.375,5.0,-6.875,-0.6875,-5.75,-7.0625,-17.1875,-11.4375,-2.6875,15.0,12.8125,4.0,3.8125,-10.625,-1.0625,0.9375,-4.375,-1.375,0.9375,2.25,-3.0,-5.125,-4.25,-2.25,-1.0625,0.5,-0.875,-2.375,-1.75,1.125,1.6875,0.5625,-1.375,-3.0,-0.25,0.4375,1.125,-0.4375,-0.5625,0.25,0.5625,-0.0625,-0.125,2.0,-0.375,-0.375,1.1875,1.4375,1.375,0.0625,-0.4375,0.0625,0.0625,0.125,-0.25,-0.8125,-0.625,-0.3125,0.125,-0.25,-1.0,-0.6875,-0.25,0.25,-0.125,-0.375,-0.3125,-0.125,0.0625,0.875,1.6875,2.25,2.4375,1.75,1.4375,1.1875,1.4375
doubleTap,2,8,0.0,-0.3125,-0.125,-0.5625,-0.375,-0.8125,-0.75,-0.75,-0.375,-0.375,-0.375,-0.625,-1.4375,-3.625,-4.3125,-5.625,-7.1875,-3.0,-2.875,2.1875,12.5,11.8125,-5.125,-6.875,-2.8125,-10.3125,-15.375,-5.25,-2.5625,11.9375,17.125,9.0,0.375,0.4375,-7.875,-4.125,-5.75,-3.8125,-0.375,-0.0625,-2.625,-4.75,-2.5625,0.625,-1.875,-7.9375,-5.875,0.125,0.5,-1.3125,-1.4375,-2.25,-0.25,-1.125,-1.0,-2.25,-2.375,-1.375,-0.8125,-0.0625,0.625,-0.5625,-1.8125,-0.375,-0.4375,-0.1875,0.5,0.5,1.5625,0.5,0.125,-0.375,0.0,-0.375,-0.25,-0.0625,-0.375,0.375,0.875,0.9375,0.75,0.25,0.625,1.0,1.375,1.5,1.0,1.0625,0.8125,1.25,0.875,1.0,0.8125,0.9375,0.75,0.75,0.5625,0.5,0.5625,0.1875,-0.1875
doubleTap,2,9,-9.0,-12.125,-14.5625,-18.5625,-19.625,-17.6875,-14.4375,-11.625,-8.5,-5.5,-3.1875,-1.1875,0.1875,2.0625,3.0625,3.625,3.625,3.5,5.625,7.125,6.375,7.125,8.625,7.8125,7.9375,5.6875,3.5,3.0625,4.25,4.5,4.625,4.1875,1.9375,-0.0625,-0.8125,-0.6875,-1.4375,-0.75,-0.8125,-0.625,0.1875,-0.125,0.25,0.25,-7.3125,-3.5,-5.875,-3.8125,5.75,9.5,3.375,-1.5,-1.0,-18.5,-13.125,-9.9375,-2.0625,9.25,17.125,13.625,7.0,3.0,-8.125,-7.0,-2.4375,0.0625,-0.25,1.1875,-0.3125,-0.6875,2.5625,3.75,2.6875,-1.4375,-2.875,-0.25,2.4375,3.8125,2.375,1.0625,0.625,-0.25,0.5,0.75,0.75,0.625,0.9375,1.5,2.4375,2.375,1.875,1.5625,1.5625,1.0,1.0,1.1875,0.9375,0.6875,0.5625,0.5,0.9375,2.125,1.25,-0.4375,-1.75,-0.8125,-0.375,-0.375,0.5625,-1.1875,-1.375,-12.5625,-7.4375,4.4375,18.25,13.5,-1.875,-12.25,0.5625,-7.3125,-13.375,-14.875,0.5,0.75,17.5,11.875,2.3125,3.25,7.25,2.9375,-9.5625,-8.125,-3.0625,-2.3125,-7.25,-5.3125,-7.5625,-2.875,0.8125,-3.25,-7.75,-3.875,0.75,2.0625,0.0625,-0.375,3.8125,3.25,4.4375,2.375,2.25,1.9375,2.25,1.5625,-0.375,-0.8125,-0.125,0.1875,-0.4375,-0.25,-1.1875,-0.625,-0.1875,0.0,0.625,0.625,0.125,0.0625,0.3125
fist,3,0,0.4375,0.6875,1.0625,0.5,0.3125,0.125,0.0,0.3125,1.875,11.375,8.5,11.75,-6.75,-3.75,0.0625,-6.875,-7.5625,-4.8125,-0.8125,0.75,9.3125,46.0,44.75,-6.5,-28.5625,49.6875,-6.25,9.125,7.4375,3.9375,-4.625,-4.375,-3.9375,0.0625,-0.25,-2.625,-4.0625,-1.125,0.4375,1.875,2.375,2.3125,-0.5625,-1.4375,-2.5,-2.8125,-2.25,-2.625,-1.9375,-0.3125,-0.3125,-2.875,-1.9375,0.25,-2.0,-1.9375,-1.3125,-0.6875,-1.4375,-1.75,-3.5625,1.125,0.0,-0.125,0.1875,0.625,1.375,0.75,1.0,1.0625,0.625,1.0,0.9375,-2.375,-2.75,-5.75,-24.125,-28.5625,-12.0625,-6.8125,-8.25,-0.875,-7.125,-13.5625,-6.75,0.25,4.3125,-6.6875,-5.8125,1.1875,0.6875,-0.8125,2.6875,1.0625,1.6875,1.4375,-1.0625,1.25,1.3125,1.875,-1.5,-3.375,-1.5625,0.25,-0.9375,-1.625,-1.875,-1.6875,-0.9375,-0.3125,-0.5625,-0.5625,-0.5625,-0.5,-0.6875
fist,3,1,-0.5625,0.0,-0.1875,0.0625,-0.4375,-0.5625,-0.625,-0.4375,-0.75,-0.9375,-0.75,-0.5,-0.75,-1.25,-1.25,-1.0,-0.8125,-0.8125,-1.0,-0.875,-0.9375,-0.5,-0.5,-0.5,-0.3125,-0.4375,-0.125,-0.125,0.125,-0.125,0.0625,-0.125,0.875,1.9375,0.6875,0.4375,1.125,1.8125,1.5,3.0625,-0.3125,0.4375,1.9375,5.3125,5.6875,-0.5,0.6875,2.75,5.6875,5.9375,5.5625,3.875,-0.625,8.75,1.9375,8.0,5.625,2.3125,4.875,5.5625,4.875,1.4375,3.0,2.125,1.6875,3.3125,2.6875,2.1875,1.0625,0.875,-0.3125,1.25,1.5625,0.6875,-0.75,-1.0,-1.1875,0.0625,0.375,0.125,-0.5625,-0.625,-1.5,-0.5625,-1.625,-2.6875,-3.3125,-2.3125,-4.6875,-16.6875,-23.8125,-15.875,-8.0625,-3.1875,2.3125,-3.875,-7.875,0.3125,-6.5625,-0.375,2.875,0.0,-6.4375,-1.875,0.3125,0.3125,0.4375,-1.75,-2.375,0.9375,0.6875,-1.5,-0.8125,1.5,0.6875,-2.0625,-0.1875,-0.6875,-0.625,-1.375,-1.25,-1.125,0.875,2.0,-0.375,-0.625,-0.4375,0.0625,-0.125,0.625,1.125,-0.9375,-0.9375,0.0625,1.9375,-0.8125,-1.5,0.375,-0.125,0.875
fist,3,2,0.9375,0.375,0.25,0.0,0.3125,0.1875,0.4375,0.125,0.0,-0.125,0.125,-0.1875,-0.25,0.0,0.25,-0.125,-0.625,-0.5,-0.5625,-0.5625,-0.3125,-0.5,-0.5,-0.375,-0.375,-0.375,-1.3125,-1.4375,-1.375,-1.25,-1.5625,-2.0625,-0.875,-1.0,-1.5,-1.1875,-0.875,-0.375,-0.3125,0.1875,-0.4375,0.875,1.625,0.0,0.1875,-0.8125,0.625,2.25,3.25,1.1875,2.0,2.25,2.5,2.0625,2.1875,1.1875,1.0,4.8125,2.125,1.1875,2.25,4.3125,3.3125,0.875,1.1875,-2.9375,1.375,0.75,0.5,1.3125,4.5625,1.875,2.125,0.0,-0.6875,0.625,-1.0625,-1.25,0.0,-0.75,0.875,2.0625,1.9375,0.5,1.125,0.3125,0.625,0.3125,0.25,0.625,-0.0625,-1.875,-1.4375,-1.125,-0.375,-0.75,-1.0,-3.4375,-6.625,-4.75,-4.25,-10.8125,-16.25,-16.625,-14.6875,-8.6875,-1.9375,0.8125,-0.375,4.625,-1.4375,1.0,1.875,-2.4375,-2.5625,4.1875,1.75,0.4375,-0.75,2.125,-0.375,-0.625,1.1875,-0.75,0.0625,-1.0,-1.3125,-2.1875,-2.0,-2.6875,-3.0,-1.5,-1.875,-0.25,-0.5625,-1.125,-0.4375,-0.6875,-1.3125,-1.25,-1.625,-0.875,-0.9375,0.0,0.0
fist,3,3,-0.9375,-0.625,0.4375,-0.375,0.875,1.875,2.4375,3.625,3.875,3.4375,3.9375,4.25,4.375,3.4375,1.875,-0.9375,-1.875,-1.5625,-2.75,-3.125,-1.1875,-1.125,-2.125,2.8125,3.125,0.9375,2.375,1.375,5.0,6.1875,8.5625,8.0625,4.0625,-0.625,2.1875,9.125,6.4375,-0.75,1.25,4.375,2.25,2.8125,3.3125,9.4375,5.0,-3.375,-3.5625,1.6875,4.8125,4.3125,5.875,8.875,6.9375,3.875,1.6875,-2.125,-1.3125,-1.0,1.1875,1.75,1.375,2.125,1.0625,1.6875,1.25,1.75,1.0,-1.125,-1.5625,0.0625,0.625,-0.375,-0.0625,-0.3125,-1.375,-2.375,-1.4375,0.5625,-4.8125,-11.75,-12.6875,-9.875,-4.875,-3.1875,-4.25,-4.25,-4.1875,-5.125,-0.875,-1.0625,-6.5,-7.5,-4.3125,2.25,2.25,-0.4375,-2.0,-0.375,2.25,-0.25,-1.5,-1.0625,0.4375,-4.5,-2.1875,-1.25,-1.4375,-2.75,-5.3125,-3.125,1.5,-0.6875,-2.1875,-0.25,0.0625,-0.25,0.5
fist,3,4,0.375,0.0625,-0.125,0.3125,1.25,1.3125,1.4375,1.125,1.1875,0.5,1.375,2.0,0.75,0.6875,1.4375,2.25,-0.5625,-1.4375,-1.25,-0.375,1.4375,-1.5,-1.5625,-0.1875,-0.375,0.375,0.5625,0.125,1.0,1.5625,1.5,3.4375,4.4375,2.875,0.0625,1.4375,1.6875,1.625,-0.1875,-1.0625,1.0625,2.25,1.3125,2.0,3.875,3.75,2.0625,-0.1875,1.1875,3.1875,0.8125,2.4375,1.8125,0.375,1.1875,-1.6875,-2.4375,-1.4375,-0.375,-1.125,-0.4375,-0.375,0.3125,2.25,1.4375,2.1875,1.625,1.5625,2.0625,0.8125,0.375,-1.125,-0.5,-0.125,2.1875,0.1875,-2.5,-7.875,-11.5625,-14.75,-11.875,-8.9375,-5.875,-4.125,-2.5625,-2.5625,-4.0625,1.1875,0.375,-4.8125,-0.875,1.0,1.8125,2.25,3.4375,1.9375,2.0625,3.25,-0.125,0.3125,0.0625,-1.3125,-3.375,-0.25,-0.5625,-2.0625,-1.5,-1.0625,-2.0625,-3.0,-1.875,-1.5625,-1.125,-2.25,0.125,0.0625,-0.625,-2.5625,-0.5625,1.75,0.5625,0.375,-2.1875,-0.8125,-1.3125,0.875,0.0625,1.1875,-1.875,-1.4375,0.3125,-0.375,0.625,-1.8125,-0.4375,-0.6875,0.125,-1.125,0.3125,-0.8125,-2.0625,-1.0,-1.25,0.25,-0.125,0.625,-0.125,-1.0625,0.1875,-0.4375,-0.4375,-0.625,0.0,0.3125,0.625,-0.8125,-1.5625,-0.8125,0.75,-0.4375,-0.875,-0.125,-0.6875,-0.25,-0.5625,-0.4375,1.0,-0.125,1.0625,-0.125,0.25,-0.3125,-0.6875,-0.0625,0.25,0.6875,0.0
fist,3,5,-0.9375,-0.875,-0.5,-0.75,-0.5625,-0.375,-0.8125,-0.6875,-0.6875,-0.375,-0.1875,-0.6875,-0.6875,-0.4375,-0.3125,-0.375,-0.25,-0.5,-0.6875,-0.375,0.0,-0.75,-0.4375,0.3125,0.3125,-0.375,0.0,0.3125,0.6875,0.1875,2.1875,1.625,1.5,2.0,2.25,1.3125,2.0625,3.5625,0.625,-0.75,-0.1875,1.3125,-0.125,-1.25,-0.5625,-0.0625,0.875,0.0625,0.1875,1.1875,1.3125,1.75,1.625,1.5,-0.125,-0.125,2.9375,3.875,3.125,3.875,4.9375,2.4375,4.0625,2.375,2.1875,2.5625,-0.4375,2.375,2.125,4.6875,4.4375,3.5,2.125,2.125,2.875,4.0625,6.4375,4.0625,3.625,4.1875,4.0625,2.6875,0.875,-6.0625,-8.125,-4.5,-6.9375,-5.5625,-1.9375,2.8125,5.625,3.625,2.625,3.25,3.375,2.5625,1.5,2.875,1.9375,2.3125,-0.3125,-0.3125,-0.5625,-1.8125,-1.75,-1.25,-3.0625,-5.625,-6.25,-6.0,-2.6875,-2.75,-0.875,-0.6875,-0.125,-1.375,-1.8125,-0.75,-4.25,-5.3125,-6.75,-4.0625,-1.1875,-1.75,-5.4375,-2.25,0.25,-2.875,-1.4375,-3.75,-5.5,-4.625,-1.125,-1.75,-2.3125,-1.3125,-2.375,-1.1875,-4.25,-1.625,-1.125,-2.875,-4.0,-4.8125,0.6875,0.25,-1.0625,-1.5625,-0.9375,-1.9375,-1.875,-1.5,-1.75,-1.5,-0.625,-0.4375,-1.375,-1.8125,-1.9375,0.0625,0.4375,-0.5625,-1.0625,-1.0625
fist,3,6,-0.4375,-0.25,-0.25,-0.4375,0.4375,-0.0625,0.6875,0.4375,-0.375,-0.8125,-0.6875,-0.625,-1.375,-1.0625,-0.875,-0.9375,-1.8125,-1.4375,-0.9375,-1.4375,-0.25,0.9375,-0.375,-0.6875,-0.6875,1.0625,0.5625,0.6875,-0.9375,0.4375,0.5,-0.0625,-0.4375,-2.1875,-2.375,-0.75,0.5,-0.875,-0.0625,0.0,0.0,-1.3125,-0.5625,-0.125,-1.1875,-0.75,-0.375,-1.1875,-2.5625,0.625,0.3125,-0.6875,-3.0,-2.5,-0.9375,2.125,1.125,-0.1875,0.75,1.25,4.625,1.6875,4.4375,3.875,2.125,1.125,0.6875,0.5625,1.6875,2.625,1.25,3.0625,1.375,0.8125,-0.0625,-0.25,-0.3125,-1.375,-1.0625,-1.625,-1.3125,-0.75,-1.4375,-2.875,-4.625,-6.0625,-8.4375,-10.875,-11.75,-9.25,-7.3125,-4.1875,-0.9375,0.9375,1.6875,-1.5,1.0,2.0625,-4.75,-7.0,3.5,-1.75,-1.4375,-2.3125,0.0,0.8125,0.25,-0.375,-2.0,-4.875,1.0625,1.3125,0.875,0.875,1.4375,0.75,0.75,1.125,-0.625,2.6875,0.0,-1.1875,-0.8125,-0.625,-1.5,-1.3125,-3.0,-2.625,-1.25,0.625,0.875,1.5625,0.625,1.625
fist,3,7,0.25,0.3125,0.5,0.6875,-0.0625,-0.375,-0.375,0.1875,-0.1875,-0.25,-0.4375,-0.375,-0.625,-0.5625,0.0,0.625,0.375,0.1875,-0.375,-0.4375,-0.5625,0.125,-0.375,-0.6875,-0.125,-0.0625,0.375,0.125,-1.9375,-2.375,-0.0625,0.5625,1.6875,0.0,-0.4375,0.375,0.4375,0.75,-0.5,-0.3125,0.4375,-1.1875,-0.375,0.8125,0.6875,0.75,0.125,0.0625,0.1875,-0.6875,1.0625,0.5625,-0.375,-0.1875,1.8125,-0.125,-0.875,-1.0,-3.0,-2.5625,-1.8125,-0.75,-0.0625,-0.8125,0.25,0.0,-0.625,-0.1875,1.0625,4.125,4.3125,7.5,10.1875,10.25,5.0,5.5625,-1.5,-1.6875,0.125,1.375,1.8125,2.75,1.5625,2.4375,1.0,0.125,-1.6875,-1.5625,-1.5,-1.3125,-1.1875,-0.25,-0.625,-1.5,-1.875,-4.25,-5.6875,-5.9375,-4.3125,-4.3125,-7.625,-8.3125,-6.5625,-4.5,-3.125,-1.8125,0.3125,0.4375,0.25,0.375,0.1875,0.25,-2.75,-1.5,2.25,0.125,0.8125,-1.4375,-1.875,-0.1875,0.125,-0.375,0.3125,-1.4375,-2.875,-3.875,-0.5,-0.6875,-0.5625,-0.8125,1.8125,0.8125,-0.875,-2.9375,-1.375,0.125,0.25,-1.9375,-3.625,-1.5625,-0.125
fist,3,8,-0.375,-0.375,0.0,-1.0625,-0.5,-0.4375,-0.5625,-0.8125,-1.375,-0.5625,-0.3125,-0.375,-0.625,-0.75,-0.875,0.0625,-0.4375,-0.3125,-0.3125,-0.375,-0.25,0.0,-0.1875,-0.375,-0.0625,-0.25,-0.375,0.3125,-0.5,0.3125,-1.5,-0.4375,-0.3125,-0.125,-0.3125,-2.9375,-1.4375,-0.1875,-1.5,-0.5625,-0.5,2.0625,0.25,-3.25,-0.6875,0.25,0.75,-2.5625,-2.8125,-0.375,-0.0625,-0.4375,-2.1875,-3.25,-0.4375,-0.25,-1.625,-1.125,-0.5,-0.125,1.3125,-0.6875,-0.125,0.125,-0.1875,-0.5,-2.1875,-1.625,0.4375,1.375,-0.375,1.3125,0.5,-0.25,1.0625,1.0625,2.8125,1.625,2.1875,2.5,5.75,5.1875,4.9375,4.4375,4.1875,5.5625,6.4375,3.875,1.8125,1.75,2.4375,1.8125,1.125,-0.125,0.0625,-0.8125,-1.1875,-1.625,-1.6875,-2.5625,-4.3125,-5.4375,-6.5625,-9.3125,-8.75,-8.6875,-6.9375,-5.4375,-3.875,-1.875,-3.0625,-0.375,1.25,-2.9375,-1.125,-2.625,-0.625,0.625,-0.25,0.0,-1.0625,-0.5,0.4375,-0.0625,0.0,1.0625,0.3125,1.0,0.375,0.0625,1.625,-0.1875,-0.75,0.4375,2.6875,1.8125,0.6875,0.625,2.0625,3.75,3.25,1.9375
fist,3,9,-1.0,-0.625,-0.5625,-0.375,-1.25,-0.625,-0.25,-0.8125,-0.125,0.1875,0.625,0.1875,0.4375,0.0625,-0.3125,-0.0625,1.4375,1.5625,0.5,0.3125,-1.1875,1.0,1.5,1.0,-0.9375,0.0,-0.0625,0.9375,1.625,-0.3125,-0.0625,-1.1875,2.3125,2.375,0.125,-1.0625,0.0625,1.1875,0.0,0.9375,-0.125,-0.5,0.375,1.375,1.4375,1.6875,0.9375,-0.875,1.1875,5.0,3.6875,2.8125,6.375,1.9375,5.4375,6.125,3.5,4.625,4.4375,5.4375,4.9375,4.875,4.375,3.3125,2.1875,0.8125,1.25,1.1875,1.125,0.0,0.8125,0.5625,0.0625,-0.25,-0.625,-1.3125,-1.6875,-3.875,-4.3125,-6.5,-12.375,-17.1875,-19.4375,-15.5625,-11.875,-6.4375,-4.5,-3.0625,-0.375,1.6875,1.9375,-1.625,-0.1875,1.6875,2.4375,2.3125,-1.6875,-2.875,0.625,2.0625,-0.3125,0.4375,0.8125,1.375,0.9375,1.0625,1.375,-1.0,-0.0625,1.5625,0.8125,-0.875,0.1875,0.875,-1.875,-3.0625,-2.5625,-0.375,1.5,-0.625,-0.75,-1.75,0.9375,0.4375,-0.375,-0.5625,-1.4375
fingersSpread,3,0,-0.375,-0.125,0.0625,0.125,0.125,0.0625,0.25,-0.0625,0.0625,-0.375,-0.625,-0.875,-0.6875,-0.625,-1.125,-1.4375,-1.6875,-3.375,-6.625,-1.5625,-2.75,-15.25,9.3125,-3.625,-9.6875,12.875,0.4375,0.3125,-3.75,-2.4375,0.5625,1.8125,1.0625,0.5625,1.25,1.4375,2.625,2.75,0.9375,-3.6875,-4.625,-1.875,1.125,1.375,-2.5,-2.75,-1.1875,-1.375,-0.875,-1.4375,-2.0,-1.5,-0.9375,-0.9375,-2.9375,-0.4375,-0.6875,2.1875,1.125,-1.5625,-2.5,0.125,0.5625,0.25,0.125,-5.0,-0.625,-0.8125,-3.5,-1.625,5.75,-1.1875,-3.8125,-5.625,-0.0625,-0.125,-0.6875,0.9375,2.0,3.0625,2.1875,-1.875,-4.9375,-1.1875,1.875,0.6875,-0.0625,-0.25,-0.0625,-0.3125,0.4375,-0.5,-0.3125,0.4375,1.1875
fingersSpread,3,1,-0.375,-0.375,-0.375,-0.3125,0.1875,-0.1875,-0.1875,-0.75,-0.5625,-0.3125,-0.4375,-0.375,-0.5,-0.5,-0.6875,-1.3125,-4.0,-7.9375,-0.375,1.9375,-1.1875,-2.0625,-1.3125,1.625,1.125,-0.75,-1.125,1.125,0.0,-3.25,0.25,1.5,-2.0625,0.75,-1.1875,-1.6875,1.625,1.6875,-1.5625,-1.75,0.25,0.9375,-0.1875,-2.25,-3.1875,-3.75,-3.9375,-3.1875,-1.625,-1.875,-1.875,-1.9375,-0.625,1.5,0.875,-0.6875,-1.4375,-0.5625,-0.125,0.0625,-0.875,-2.4375,-0.125,1.6875,0.625,-0.6875,0.0625,-0.9375,-1.5,-0.125,1.5625,-0.25,-0.375,-4.25,-3.0,-2.125,0.875,1.5625,-1.9375,-2.5625,0.5625,10.375,6.9375,0.75,-2.0625,-3.875,3.625,5.875,2.3125,-2.1875,-2.0,2.25,3.0625,2.4375,0.0625,-0.4375,1.3125,2.3125,2.25,0.5,-1.75,-1.625,-1.375,-1.0625,-0.9375,-1.4375,-2.5625,-1.625
fingersSpread,3,2,-0.6875,-0.8125,-0.75,-0.75,-0.5,-1.0,-1.0625,-1.0,-1.0,-0.0625,0.0625,-0.6875,-0.8125,-0.4375,0.125,0.1875,-0.3125,-0.1875,0.4375,0.625,0.375,-0.1875,-0.75,-2.125,-5.625,-9.0625,-1.5625,0.25,-6.9375,-2.3125,4.6875,8.125,3.5,3.8125,-2.0625,0.875,2.0,1.9375,3.5,3.375,4.125,1.125,1.8125,2.0,0.625,-1.125,-2.5625,0.125,-0.3125,-0.9375,-0.3125,-1.25,-0.625,-1.8125,-0.5625,-0.4375,0.5625,0.4375,-1.3125,-0.875,-0.4375,-2.8125,-2.875,-3.125,0.0,-0.125,-5.8125,-3.875,-0.25,0.75,0.3125,0.0,0.25,0.75,-1.8125,0.125,1.375,-0.5625,1.25,1.0,-0.5625,-3.8125,-1.625,1.25,1.125,-1.0,-1.5625,-1.375,-0.375,-0.4375,-3.0,-0.0625,2.5625,10.0625,9.3125,7.9375,10.0625,5.3125,0.875,-4.375,0.0625,5.6875,4.75,0.4375,-0.5625,1.375,1.3125,-0.5625,-3.0625,-2.875,-1.3125,-1.0,-1.875,-3.8125,-2.75,-1.9375,-0.875,-1.125,-1.1875,-0.625,-0.625,-0.125
fingersSpread,3,3,-0.375,-0.4375,-0.6875,-0.6875,-0.625,-0.375,-0.6875,-0.8125,-0.6875,-0.8125,-2.6875,-5.0,-7.3125,-4.375,-2.75,-3.25,-4.8125,-5.25,-1.4375,0.8125,-0.0625,0.6875,0.5625,3.25,1.8125,-0.8125,0.3125,1.9375,1.3125,0.3125,-0.625,0.9375,3.0,2.875,-1.3125,-1.9375,-3.1875,0.3125,0.0,-1.0,2.0,2.5,-1.375,-1.5625,-0.9375,-2.0,-3.0,-3.25,-3.875,-1.5,-1.0625,-0.9375,-2.3125,-3.0,-3.25,-0.25,-1.375,-1.8125,-1.0,-1.75,-3.0,-5.6875,-5.625,-6.4375,-7.4375,-3.5,-0.4375,2.3125,3.75,5.375,7.0,4.4375,1.1875,1.625,1.5,0.25,-0.375,3.0625,3.375,3.375,3.0,0.75,-1.5625,-1.875,-3.0,-0.625,-1.5,1.25,0.4375,1.25,2.25,3.75,6.1875,7.3125,7.8125,9.5,15.25,8.75,1.125,0.8125,6.0625,13.5625,4.4375,-9.5,-7.25,1.4375,9.125,9.4375,5.0,1.75,0.4375,2.75,4.5,3.375,2.0,-0.4375,-2.4375,-2.1875,-0.875,0.0,-0.375,-1.1875,-2.75,-1.8125,-0.5
fingersSpread,3,4,-0.4375,-0.5,-0.6875,-0.625,-0.375,-0.3125,-0.4375,-0.25,-0.25,0.25,0.125,-0.5625,-0.375,-0.5,-0.5625,-0.5625,-0.375,-0.9375,-1.5,-1.625,-1.5,-2.0,-3.6875,-6.0625,-9.0,-8.4375,-7.5,-5.5,-3.5,-4.3125,-3.4375,-1.1875,4.4375,-1.8125,0.5,3.125,0.5,-2.6875,-0.25,0.0625,0.75,-0.1875,2.75,2.75,3.375,-2.5,-4.0625,-4.4375,-2.5,-6.5625,-6.625,-5.8125,-2.0625,-2.8125,-3.75,-3.5625,-3.8125,-5.3125,-4.625,-4.25,-6.625,-7.5625,-5.0,-3.0,-1.6875,0.1875,-1.0,-2.8125,-1.375,-0.8125,-3.375,-4.5,-4.875,-5.3125,-3.1875,-4.875,-5.6875,-4.1875,-2.0,1.25,2.0625,-1.5625,-3.0,7.0,10.6875,4.875,1.25,-0.6875,6.0,10.125,6.75,3.8125,4.6875,3.75,5.0,4.1875,3.0,3.0625,2.625,2.8125,2.75,3.3125,1.75,1.5,0.9375,1.75,1.375,-0.375,-0.375,-0.75,-1.0,-0.8125,-0.75
fingersSpread,3,5,-0.625,-0.5,-0.5,-0.375,-0.3125,-0.375,-0.625,-0.3125,-0.3125,-0.625,-0.6875,-1.0625,-0.9375,-1.5,-1.75,-3.0,-2.125,-2.1875,-2.625,-3.0,-2.75,-2.0,-2.4375,-3.75,-6.6875,-5.875,-4.5625,-4.1875,-2.0625,-1.3125,-0.6875,0.5625,1.875,0.5625,-3.0,-3.1875,-4.6875,-4.6875,-5.5,-6.125,-2.1875,-0.5625,3.1875,6.1875,4.125,1.5625,1.625,1.375,0.5,0.1875,-3.1875,-2.125,-2.375,-3.1875,-4.75,-5.75,-5.375,-6.625,-6.625,-3.9375,-3.8125,-3.125,-2.0625,-0.4375,-2.625,0.125,1.0,2.4375,-0.75,0.4375,1.1875,2.0,-2.3125,-2.0,-1.9375,-0.875,0.25,-0.125,-2.3125,0.4375,0.3125,0.1875,-0.9375,-1.5,-1.4375,0.0,-0.0625,-1.0625,-0.0625,1.6875,0.9375,-0.75,-2.625,-2.0,-1.6875,0.875,-0.1875,-2.0,-2.5625,-1.9375,-3.5,-0.5625,4.0,15.9375,14.375,6.0,-5.75,-5.1875,9.5,17.1875,6.625,-4.25,-5.3125,3.4375,8.5,5.25,-0.25,-3.625,-2.25
fingersSpread,3,6,-1.3125,-1.4375,-0.875,-0.9375,-1.125,-1.1875,-1.25,-1.75,-1.6875,-1.4375,-1.1875,-1.0625,-1.125,-1.1875,-0.8125,-0.6875,-0.625,-0.3125,-0.25,-0.3125,-0.75,-0.9375,-0.5,-0.75,-1.5,-5.125,-3.0,-2.0625,-2.4375,-3.75,-3.0,-2.6875,-2.25,-1.75,-1.5625,-1.1875,-0.5,4.0,2.8125,-1.9375,1.1875,1.125,0.25,3.5625,-2.0,-1.125,1.8125,-0.3125,-2.125,-1.0625,3.25,6.1875,4.5625,1.5625,-1.0625,1.125,1.3125,1.25,-0.4375,0.0625,1.625,0.5625,-0.375,-1.0625,-1.375,-1.1875,-2.6875,-2.0,-1.0,-2.1875,-4.875,-3.5,-0.3125,-1.125,-3.9375,-4.75,-1.8125,-1.625,-2.0625,-3.0,0.4375,1.0,-0.25,-5.625,-6.6875,-2.5625,-0.125,2.375,-1.5,-1.1875,0.0625,-0.3125,-0.375,1.4375,3.1875,-0.125,-2.625,0.1875,0.875,0.0,1.1875,-0.375,-1.3125,-2.375,-3.0,-0.5625,1.5625,4.0,3.4375,7.25,8.5625,8.9375,8.375,7.25,2.0625,-0.5625,-0.875,0.9375,3.25,3.0,1.4375,0.4375,0.5625,2.25,1.25,-0.8125,-1.75,-1.875,-2.125,-2.0625,-1.8125,-2.75,-2.625,-3.0625,-2.1875,-2.0,-1.875,-2.125,-1.0,-0.5625,-0.1875
fingersSpread,3,7,-1.3125,3.25,0.625,1.0,0.1875,2.3125,3.9375,5.1875,0.5625,1.25,2.75,4.0625,-0.8125,-2.9375,-0.125,-0.25,-1.0625,-2.5625,-1.875,-3.0,-3.3125,-3.0625,-0.4375,-1.6875,-1.375,-5.3125,-5.25,-2.625,-3.5625,-4.0,-2.25,-3.4375,-3.0625,-1.4375,-2.1875,-6.0625,-3.25,-0.5,1.6875,0.5625,2.125,3.125,2.1875,-0.4375,-3.5,-0.9375,-0.6875,1.0625,-2.375,-1.9375,-0.25,-0.5,0.625,-0.625,-0.9375,-0.375,0.75,3.125,5.125,10.25,19.375,13.0625,5.5,0.4375,4.875,18.5,14.25,-0.3125,0.0,3.875,7.625,3.8125,1.0625,-3.0625,-5.5625,-4.9375,-4.1875,-3.75,-3.4375,-4.5625,-4.875,-4.0625,-4.4375,-3.6875,-3.375,-3.375,-1.75,-1.875,-1.75,-1.5625,-1.0,-0.75,-1.4375,-1.5,-0.375,-0.5
fingersSpread,3,8,0.3125,-0.0625,0.0625,0.125,-0.375,-0.125,-0.3125,-0.375,-0.625,-0.3125,0.0,-0.1875,0.125,-0.0625,-0.1875,0.0625,0.3125,0.25,0.25,0.3125,0.25,0.375,0.1875,-0.1875,-0.5,-2.375,-4.125,-1.25,-3.4375,-4.125,-1.25,0.9375,1.25,0.625,-2.25,-2.3125,-0.3125,0.1875,-0.0625,-1.75,-1.5,0.25,-1.1875,-3.0,1.125,-1.875,-2.25,3.75,5.375,3.1875,2.9375,1.3125,3.375,0.25,1.0,1.75,0.5625,-1.25,-0.375,0.25,-0.125,-1.375,-1.1875,-0.0625,1.375,1.5,0.375,0.3125,1.5625,0.0,-1.5,-2.0625,-5.1875,-4.0625,-5.3125,-5.6875,-6.375,-6.625,-4.1875,-2.5625,-5.25,-6.6875,-3.9375,-1.875,-2.0,-3.8125,-0.75,-1.3125,-0.4375,4.1875,4.3125,2.0,2.0,1.9375,1.625,5.5,8.9375,8.5,9.1875,8.5625,6.375,6.25,6.0,6.0625,1.375,-1.6875,-1.5,1.4375,1.0625,1.8125,0.9375,1.25,1.9375,-0.1875,-0.625,1.0625,0.0,1.625,0.875,1.3125
fingersSpread,3,9,-0.5,-0.6875,-0.625,-0.3125,-0.1875,-0.5,-1.125,-1.125,-0.5625,-1.0625,-0.9375,-0.875,-0.0625,0.25,0.1875,0.5,0.5625,0.0625,-0.3125,0.1875,0.0,-0.6875,-0.5,-0.125,-0.125,-1.5,-0.625,-1.125,-1.5625,-1.9375,-2.0,-2.125,-2.5625,-1.5625,-2.5,-3.1875,-4.625,-3.5,-3.5625,-3.0,-2.5625,-3.125,-3.875,-2.6875,-2.4375,-2.125,-1.9375,-1.5,-1.6875,-1.4375,-0.375,-0.4375,-1.4375,-1.0625,-0.3125,0.5,0.75,2.4375,0.125,-1.375,-0.3125,2.875,2.3125,0.8125,0.5625,-0.3125,1.25,1.0625,0.1875,-2.25,-3.25,-2.0,2.3125,1.25,2.25,-1.75,-0.375,2.25,2.0,-0.4375,0.5,0.8125,1.3125,1.6875,-2.0625,0.5625,-1.25,-4.4375,-5.375,-0.875,-2.4375,-2.5,-4.625,-3.25,-4.3125,-5.1875,-7.625,-7.3125,-6.1875,-6.375,-3.875,-5.0625,-4.4375,-2.375,-0.5625,-1.0625,-4.375,-3.8125,-1.6875,-0.4375,-0.8125,-1.8125,-2.0,-2.25,-0.375,-0.625,-3.0,-0.6875,-0.4375,-2.4375,-2.6875,-1.375,-1.1875,0.5,-0.3125,-0.375,-0.875,-0.5625,-0.3125,-0.9375,-1.375,0.5625,2.0,1.125,3.4375,8.6875,13.5625,2.25,-1.4375,9.3125,16.5625,17.9375,10.9375,1.0,-0.1875,4.125,8.875,7.0625,3.125,-1.125,-1.0,2.875,3.6875,4.25,0.6875,-1.75,-1.3125,0.375,1.1875,0.0,-1.25,-0.9375,-0.4375
waveOut,3,0,0.5,0.25,1.625,1.4375,1.5,1.25,2.0,2.1875,1.8125,0.8125,0.5,0.5,0.125,-0.125,-0.375,-1.0625,-0.3125,-0.0625,0.375,1.6875,2.5625,4.75,6.5,7.4375,9.4375,16.125,21.3125,23.625,18.9375,18.125,8.8125,2.375,3.125,0.0,0.0,0.0,2.5625,-4.125,-4.3125,-3.0,-8.5625,-6.5,-8.75,-9.8125,-9.5625,-9.875,-12.75,-14.4375,-13.1875,-9.1875,-10.0625,-13.125,-10.5,-8.5,-8.5625,-11.25,-10.8125,-10.9375,-11.8125,-15.25,-18.6875,-17.125,6.375,9.3125,8.125,5.0,6.5625,6.625,2.9375,2.4375,1.875,2.25,4.5,4.25,2.25,1.0,-2.0625,-1.9375,-0.5625,-3.0625,-4.75,-3.0,-2.375,-2.6875,-1.125,-2.75,-0.25,2.3125,3.875,3.3125,-1.6875,-2.875,3.75,2.625,1.8125,3.125,-1.375,7.9375,7.3125,6.0,1.75,5.5625,7.375,4.9375,3.3125,3.375,6.1875,9.0625,8.375,5.6875,14.25,20.9375,15.4375,7.4375,10.5,12.3125,7.875,-0.8125,-2.3125,-0.8125,3.8125,2.8125,-1.8125,-7.5,-3.0,1.5625,2.25,0.6875,-3.6875
waveOut,3,1,-0.1875,-1.0625,-1.25,-2.0,-1.9375,0.125,-0.3125,-1.1875,-1.5,-0.8125,0.25,-1.125,-1.3125,1.1875,1.375,0.125,-1.4375,1.375,3.75,4.8125,2.5625,-2.5625,3.5625,4.8125,-1.6875,-5.375,5.3125,10.625,5.0,0.8125,2.1875,9.5,8.75,0.25,-5.25,-9.125,-9.25,-10.1875,-11.375,-15.1875,-20.4375,-29.6875,-31.75,-28.6875,-26.75,-32.0625,-32.125,-25.9375,-22.625,-24.8125,-22.9375,-18.0625,-11.3125,-8.5,-9.5625,-4.875,0.4375,0.1875,-0.4375,1.25,4.4375,6.5,5.0625,1.8125,1.8125,1.25,7.0625,1.75,-5.5,-0.375,6.125,3.5625,-5.5625,4.375,1.625,-4.0625,-8.75,-11.6875,-9.6875,-12.625,-9.125,-4.4375,-3.3125,-1.0625,0.1875,1.0,7.4375,10.625,7.6875,4.5,3.8125,6.875,11.0,12.8125,14.125,17.25,12.625,11.375,26.125,29.125,21.8125,19.0,20.3125,29.125,22.0,9.625,9.25,16.5,14.375,3.125,-1.4375,2.9375,12.125,15.875,2.75,-6.3125,-0.0625,4.9375,2.4375,-4.0,-10.5625,-9.4375,-7.125,-6.375,-7.5625,-5.5625,-6.1875,-3.75,-2.4375,-4.4375,-2.4375,-2.9375,-0.9375,-1.0625,-2.4375,-1.0
waveOut,3,2,-11.125,-12.0,-11.25,-10.25,-8.5,-6.6875,-6.875,-6.125,-4.875,-4.0625,-3.0625,-2.5,-1.5,-0.75,-0.5625,0.125,0.0625,2.875,1.5625,-0.125,-2.1875,-1.0625,0.625,2.0625,7.625,5.125,0.0625,2.0625,10.75,10.0625,6.3125,4.625,9.5625,15.125,15.8125,7.0625,2.125,4.125,3.0,0.375,-0.625,-2.3125,0.0,-0.5,2.9375,-1.125,-3.4375,-4.125,-0.5625,-3.875,-5.8125,-5.5,-2.6875,-3.1875,-4.4375,-3.625,-1.3125,2.125,2.375,-0.375,2.25,2.3125,-0.4375,-2.9375,-2.25,-1.8125,-3.625,-4.9375,-3.3125,-4.3125,-5.0625,-4.875,-4.6875,-2.375,-1.9375,-2.0625,-3.375,-2.375,-1.5,-1.875,-4.375,-6.6875,-4.75,-1.125,-0.875,-2.5625,-3.0,-2.3125,-2.8125,-4.3125,-4.0625,-5.8125,-4.3125,-4.5625,-4.25,-4.8125,-4.625,-5.125,-5.875,-4.625,-4.0,-5.0,-1.6875,-0.125,-0.375,-1.625,-2.125,3.375,1.5,-4.75,-1.5625,-0.4375,6.125,8.75,5.625,2.0625,1.3125,8.5,12.1875,8.75,-1.625,5.0,13.75,11.3125,1.9375,-6.9375,-1.75,5.1875,-1.375,-8.8125,-7.5,3.3125,3.25,-5.6875,-8.25,-3.75,-1.9375,-2.5625,-5.25,-7.9375,-7.3125,-6.375,-9.25,-12.875,-12.125,-7.4375
waveOut,3,3,-3.125,-2.25,-1.5625,-1.75,-0.9375,0.25,2.3125,2.3125,4.3125,4.75,2.5,-0.5625,-0.25,0.4375,5.25,3.4375,1.1875,0.1875,1.25,1.9375,0.125,0.1875,1.25,1.6875,1.375,-1.4375,-1.9375,0.375,-0.8125,-1.5625,-2.5625,-0.6875,-0.375,1.6875,-1.375,-3.8125,-6.0,-1.625,-1.75,-6.75,-9.1875,-7.375,-4.875,-4.9375,-3.1875,-3.0625,-3.0,-3.8125,-3.9375,-2.6875,-3.9375,-5.0625,-5.0,-5.3125,-7.4375,-8.9375,-9.1875,-9.0,-7.8125,-9.125,-9.6875,-9.0625,-9.5625,-9.3125,-10.375,-9.8125,-8.625,-7.1875,-7.5625,-6.0625,-5.875,-3.6875,-3.5625,-3.875,-4.0625,-2.625,-2.25,-4.0,-3.0625,-1.625,-0.8125,-1.0,0.5625,0.75,1.25,0.625,0.0,0.4375,0.875,0.6875,-0.9375,-0.3125,0.25,-0.3125,-1.75,-1.25,0.5625,-0.625,-0.5,-2.0625,-2.5,-1.625,-1.5625,-1.25,0.0625,0.1875,-1.125,-0.375,-1.3125,-0.5625,-1.3125,2.0,0.9375,1.625,-0.75,-0.6875,6.25,4.75,0.0625,-6.25,-2.5,2.625,4.9375,-1.875,-9.625,-15.8125,-3.5625,5.0,6.125,2.1875,1.25,4.3125,9.375,8.875,3.3125,2.625,2.6875,3.125,1.125,-1.5,-2.4375,-2.0625,-0.9375,-2.0625,-2.8125,-4.625,-3.0,-3.125,-2.25,-2.875,-1.9375,-3.0,-2.875,-1.8125,-1.0,-1.875
waveOut,3,4,-4.75,-3.6875,-2.25,-1.75,-0.8125,-0.375,-2.125,-4.3125,-2.9375,-0.8125,-4.375,-1.875,3.6875,9.125,0.3125,-5.125,2.5625,4.8125,2.25,-1.3125,-0.0625,3.9375,6.375,4.5,1.5,-1.3125,2.3125,7.5625,6.0625,-0.125,2.625,10.4375,4.8125,-5.75,-4.0625,-5.3125,-10.6875,-11.875,-12.4375,-15.6875,-18.6875,-18.0625,-18.0,-18.125,-19.8125,-18.6875,-16.3125,-17.1875,-15.375,-14.5,-13.125,-9.9375,-7.75,-8.5,-10.25,-10.8125,-9.0625,-7.0,-7.1875,-10.0,-8.875,-6.9375,-7.0,-5.6875,-4.5,-3.6875,-0.6875,3.75,4.5625,2.0625,1.3125,2.25,1.0,-2.75,-2.375,-2.0,-5.9375,-7.875,-10.5625,-10.1875,-9.5625,-10.3125,-8.25,-7.1875,-6.0625,-3.6875,-3.5,-2.6875,-1.9375,0.3125,1.875,3.9375,4.0625,5.5,9.8125,12.0625,13.0625,17.4375,19.8125,14.0,7.5,12.0,26.0625,28.6875,17.4375,10.4375,13.75,25.9375,28.5,13.5625,6.375,9.1875,10.9375,11.4375,4.3125,0.4375,-2.1875,-1.1875,-1.5625,-1.6875,-1.5625,-1.5,-1.875,-1.0625,-1.4375,-1.875,-2.0,-2.4375,-3.0625,-3.1875,-2.9375,-3.1875
waveOut,3,5,0.5625,-0.625,-1.1875,-0.75,-0.375,-0.625,-0.8125,-0.875,-0.375,-0.25,-0.0625,-0.5625,-0.625,-0.8125,0.1875,-0.375,0.0625,0.25,1.25,0.75,0.6875,-0.25,1.5625,5.5625,4.75,3.3125,4.0625,6.125,8.5,8.625,4.0625,2.5,9.5,11.4375,4.3125,-4.75,1.8125,0.0625,-1.875,-2.0,1.1875,1.8125,0.5625,-0.5,-2.125,-0.4375,-1.75,-1.625,-4.6875,-7.5625,-6.4375,-4.1875,-15.1875,-19.1875,-19.0,-15.0,-13.1875,-14.8125,-16.0625,-14.8125,-8.25,-4.4375,-5.3125,-7.1875,-4.3125,-0.4375,1.3125,0.9375,-2.125,-4.0625,-1.0,1.5,0.8125,-0.125,0.0,-0.5,0.5,1.5,1.0625,-0.4375,-1.5,-2.25,-2.5625,-3.1875,-1.9375,-1.0625,-3.125,-4.1875,-3.0,-2.875,-1.875,-3.0625,-1.875,-1.6875,2.875,4.4375,1.4375,-0.25,0.1875,4.125,1.8125,-2.4375,-4.0,0.0625,0.5625,-0.5,-2.1875,-3.5625,-1.0,0.5625,-1.6875,-2.3125,-3.125,-3.25,-3.9375,-0.5625,2.25,6.375,6.25,2.8125,6.625,9.0,10.25,6.625,13.3125,12.75,11.1875,5.8125,-0.1875,6.0625,5.3125,-6.625,-4.625,6.8125,7.6875,-3.6875,-3.625,2.5,7.25,3.375,-4.4375,-2.9375,5.625,6.125,0.3125,-2.6875,0.4375
waveOut,3,6,-5.0625,-13.4375,-20.875,-19.8125,-15.1875,-7.25,-3.625,-5.9375,-4.1875,-0.875,-1.1875,-2.3125,-4.125,-9.5,-10.1875,-9.625,-14.375,-18.1875,-22.5,-20.4375,-13.9375,-11.4375,-12.4375,-12.6875,-9.5,-1.625,2.9375,-0.625,-0.6875,-1.3125,1.25,-2.125,-7.75,-5.9375,-4.0625,-4.0,-6.6875,-1.9375,-0.125,2.6875,1.625,-4.125,-11.0625,-3.9375,0.75,-2.1875,-4.3125,-4.875,0.4375,2.25,-1.0,-1.875,-1.375,0.1875,-1.4375,0.0,-2.0,-2.5625,-2.1875,2.125,-0.125,-3.8125,-3.0,-0.3125,0.1875,-4.1875,-4.5,-5.5625,-3.625,-3.625,-0.625,-1.9375,-1.625,-0.8125,2.25,3.0625,2.6875,2.6875,3.8125,5.125,4.9375,3.125,3.1875,9.3125,13.1875,13.75,12.625,8.875,12.8125,15.3125,15.375,15.8125,14.5,9.3125,3.25,5.8125,7.9375,1.8125,2.75,0.625,2.9375,0.5625,-0.375,5.125,9.8125,10.125,5.3125,2.8125,2.125,3.9375,0.4375,4.6875,2.625,-1.1875,0.0625,-0.5625,-3.625,-3.9375,-4.8125
waveOut,3,7,-0.4375,-0.3125,-0.375,-0.5625,0.25,0.125,-0.1875,-0.375,2.4375,5.25,3.8125,0.8125,3.1875,2.9375,5.0625,0.875,-4.25,-0.875,0.8125,2.5625,1.25,-1.25,0.75,2.3125,2.4375,-0.1875,0.875,1.5,3.875,-0.875,-0.75,6.25,3.375,-3.4375,-3.625,4.25,5.4375,-0.8125,-1.625,3.5625,2.3125,0.125,-3.1875,-5.5,-5.25,-4.25,-5.625,-9.5,-12.3125,-5.8125,-5.75,-15.125,-22.5,-28.125,-28.375,-21.1875,-23.25,-21.75,-22.4375,-14.1875,-4.125,-2.75,-0.375,0.9375,3.9375,2.875,4.125,1.0,0.9375,2.6875,5.0625,5.625,1.0,-0.4375,1.75,2.125,-0.5,-0.9375,-1.125,2.4375,0.0,-2.375,-5.25,-4.375,-0.8125,-0.75,-1.0,-0.625,2.625,3.6875,3.8125,2.0,1.6875,-0.25,-0.5625,1.1875,-1.375,-0.1875,2.75,2.1875,2.25,3.0625,3.75,4.3125,2.6875,1.0,-1.3125,-2.0625,-3.4375,-2.375,-6.0625,-7.4375,1.5,-4.625,-7.6875,-1.5,3.25,-6.9375,-7.75,-0.625,5.875,1.5,-1.0,-1.3125,1.6875,4.0,1.6875,0.6875,0.6875,-1.125,-1.125,-2.6875,-3.5,-3.4375,-3.0,-4.1875,-5.5625,-7.5,-4.6875,-2.5625,-3.6875,-5.25,-4.125,-1.9375,0.625,-0.0625,-1.5625,-2.0,-0.375,2.0,2.4375,0.3125,2.875,3.25,3.875,2.3125,2.375,2.25,-1.0,0.1875,4.0,0.25,-1.25,-1.9375,-0.8125,1.875,1.1875,0.0,-1.9375,0.5625,0.9375,0.8125,2.3125,4.0625,7.125,6.1875,7.75,5.3125,7.0,9.625,5.9375,3.6875,4.9375,9.875,13.3125,14.4375,9.375,8.5625,8.75,11.375,10.25,7.1875,3.0,4.9375,4.5625
waveOut,3,8,0.875,-1.125,0.5625,2.25,2.6875,1.1875,-1.375,-2.3125,0.125,1.875,3.875,2.5,0.0625,-1.3125,3.25,2.4375,1.5625,-1.875,-0.125,3.125,2.1875,-1.0625,-2.0625,-0.0625,0.875,-0.875,0.375,0.4375,1.625,0.625,-0.3125,0.125,2.5,0.3125,0.4375,2.5625,5.875,4.6875,2.0,1.4375,1.5,1.125,-0.125,1.5,2.9375,-1.5625,-2.5625,-1.5625,-2.625,-1.375,-2.625,-3.125,-2.25,-0.875,-0.5625,-3.625,-8.0625,-5.8125,-1.1875,-0.4375,-6.875,-7.4375,-1.9375,2.0625,1.4375,-1.5,0.5,1.5,3.9375,0.875,-2.0625,-3.375,-0.875,-1.625,-3.5,-8.4375,-8.125,-7.125,-8.625,-11.5625,-13.0625,-10.75,-9.625,-9.5625,-9.6875,-7.125,-4.3125,-2.0625,-0.5625,0.5,2.875,4.25,3.125,1.0,3.5625,4.75,3.1875,-1.0,-0.1875,1.9375,0.9375,-2.0625,-2.125,-0.5,0.0625,-1.625,-2.1875,-2.25,-0.875,-2.3125,-2.9375,-2.4375,-0.4375,-1.0,-0.125,0.0625,0.125,-0.5,0.6875,0.9375,-0.5,-2.25,-0.375,-0.0625,0.6875,0.5,2.0,2.0625,2.25,2.3125,3.8125,3.6875,2.5,0.75,5.6875,10.375,9.5,16.0625,20.5625,15.375,12.75,12.5625,8.375,7.0,11.375,10.25,7.625,4.375,10.25,18.9375,19.0625,17.125,8.0,4.3125,9.0625,11.6875,8.1875,1.75,-0.875,1.9375
waveOut,3,9,-0.75,-1.0,-0.375,-0.875,-0.5,-0.5625,-0.375,-0.625,-0.375,-0.5625,-1.0,-0.875,-0.5625,-0.5625,-1.0625,-2.125,-2.0,-2.375,-1.6875,-1.125,-1.25,-0.4375,1.125,2.0,4.6875,6.9375,6.5,5.0,5.5,4.75,0.8125,-0.4375,-1.4375,-2.25,-1.125,0.75,2.125,-1.9375,-2.0,1.5625,3.4375,-1.875,-3.25,-2.4375,-1.5,-7.8125,-12.3125,-7.9375,-10.6875,-12.6875,-18.3125,-19.5,-20.375,-18.75,-22.125,-25.125,-21.75,-20.3125,-17.5,-18.125,-18.75,-18.25,-9.375,-5.25,-7.3125,-5.5625,-3.3125,0.375,-3.0625,-3.375,-5.125,-4.375,-4.4375,-5.5,-4.9375,-4.4375,-3.4375,-0.625,0.6875,-0.125,-2.6875,-3.375,0.6875,-2.875,-6.75,-4.8125,-3.5625,-2.3125,-3.0,-3.875,-4.75,0.75,2.5,-4.0,-7.5625,-5.5,-2.75,0.0,-2.5625,-6.5625,-2.9375,-3.4375,-0.25,-0.1875,-2.4375,-3.875,-0.25,2.6875,2.8125,-0.0625,0.6875,5.0,3.625,0.75,-4.4375,0.0625,2.25,-0.5,-2.875,-1.9375,-0.4375,-2.375,1.1875,9.125,14.5,18.0,17.375,17.9375,24.125,30.0625,19.375,9.0,12.625,25.8125,26.0,9.125,-0.625,0.875,14.6875,10.125,0.5,-3.6875,10.875,16.375,5.5,-3.0,-0.375,9.1875
waveIn,3,0,-1.1875,-4.625,-7.3125,-6.8125,3.4375,8.6875,-0.125,-2.3125,8.9375,17.3125,6.125,-7.4375,4.3125,12.3125,4.4375,3.9375,6.4375,0.0625,3.3125,6.6875,10.6875,-1.0625,-6.1875,-2.375,-2.0,-9.3125,-12.1875,-18.25,-6.25,2.3125,-7.25,-13.75,-1.125,9.25,9.9375,4.8125,-0.9375,7.75,7.875,5.125,2.8125,0.8125,2.75,6.0,3.875,2.5,4.5625,6.375,6.5625,5.5,6.1875,9.625,9.5,9.125,8.0,6.25,7.75,9.5625,10.25,9.5625,9.4375,10.6875,11.375,12.9375,11.4375,11.8125,12.4375,12.1875,10.1875,8.0625,9.1875,10.125,11.1875,10.0,6.9375,4.5,4.4375,4.5,3.3125,2.25,2.0,-0.1875,-1.6875,-3.5625,-1.4375,1.0625,0.125,-2.375,-2.5625,-4.125,-4.75,-6.25,-8.3125,-6.8125,-7.75,-9.9375,-0.9375,4.3125,5.5625,7.125,16.375,28.75,15.375,3.8125,18.4375,25.3125,9.6875,-1.1875,2.3125,-1.8125,-10.8125,-4.875,5.625,-5.75,-17.1875,-8.1875,-0.1875,-3.0625,-7.4375,-11.75,-9.0,-5.125,-11.0,-12.1875,-11.1875,-5.875
waveIn,3,1,0.5625,-0.125,-0.5625,-0.75,-1.125,-0.3125,-1.375,-0.9375,-0.6875,-0.875,-2.0625,-2.3125,-2.5625,-3.125,-4.5,-5.5625,-5.8125,-4.5,-7.75,-11.8125,-16.6875,-16.0,-8.0625,-0.375,-0.75,-5.5,-3.9375,5.0,8.6875,2.1875,-1.8125,-1.0625,4.625,10.375,8.4375,6.625,6.0625,5.9375,5.8125,5.1875,1.875,1.4375,1.1875,1.25,0.375,1.4375,4.6875,4.25,4.625,2.3125,-0.9375,-1.0,1.25,2.3125,0.8125,3.0625,7.3125,8.0,7.4375,9.1875,8.4375,16.9375,23.875,22.375,19.75,16.125,15.3125,16.0625,14.4375,11.875,9.875,9.4375,9.4375,8.625,10.6875,9.5,9.375,7.5,6.5,4.6875,4.3125,4.8125,3.3125,4.75,6.4375,7.875,6.9375,4.9375,1.8125,0.3125,3.875,4.625,2.375,2.5,1.5,1.125,-0.75,1.0625,1.0625,0.5625,-2.25,-3.0,-2.25,-2.3125,-3.875,-5.5,-6.5625,-6.9375,-5.625,-6.4375,-8.0,-12.75,-7.0,-4.875,-0.8125,-10.8125,-13.3125,-4.75,5.5,4.5625,-2.125,-3.25,3.625,10.875,15.375,14.6875,5.9375,6.125,10.25,7.875,7.9375,6.6875,3.8125,-8.0,-7.75,3.4375,2.625,-12.375,-10.75,0.6875,7.125,-1.375,-9.125,-8.9375,-2.625,-2.6875,-8.0,-3.9375,-6.0,-6.0,-1.25,-1.875,-5.5625,-4.375,-1.3125,1.0625,-3.0625
waveIn,3,2,-0.625,-0.375,-0.8125,-0.0625,-0.125,-1.375,-1.3125,-0.75,-0.1875,0.0,-0.5,-0.875,-0.4375,-0.9375,-0.4375,-1.1875,-2.1875,-3.0,-4.6875,-4.3125,-3.0,-5.25,-9.375,-13.875,-11.4375,-8.3125,-2.25,-2.25,-3.3125,-3.125,-2.3125,-1.6875,-1.625,-6.375,-8.0,-4.5625,-1.1875,2.125,1.375,0.3125,2.3125,4.5625,5.0,3.125,-1.5,0.0,2.4375,3.625,0.9375,-0.25,2.25,6.3125,10.625,13.1875,15.625,15.1875,15.8125,15.4375,13.125,12.5625,12.375,15.125,11.875,9.5,9.8125,10.6875,9.625,8.3125,7.5,6.5625,5.875,3.5625,3.6875,-0.0625,-1.3125,-0.375,0.875,-2.6875,-1.375,-2.0,1.3125,0.75,-0.125,-1.1875,-0.875,1.0,1.125,-0.0625,0.125,0.0625,-0.125,0.875,0.6875,1.0625,0.6875,1.0,2.4375,2.6875,1.9375,0.1875,-0.375,-1.25,-0.0625,0.125,1.6875,0.375,-0.3125,-1.3125,-1.1875,-0.375,-0.625,-0.625,-1.125,-1.0,1.5,2.0,2.8125,2.25,-0.125,-1.0625,-0.375,-0.875,-1.3125,-1.9375,-1.75,-1.375,-0.1875,-1.1875,-2.5,-3.3125,-6.3125,-5.6875,-9.0625,-5.1875,-5.6875,-10.25,-5.625,-5.9375,-12.125,-16.5625,-12.625,-6.1875,-5.1875,-16.125,-18.9375,-11.625,-5.25,-2.625,-13.25,-16.6875,-8.8125,5.8125,-3.25,-13.6875,-10.0625,0.875,6.9375,-2.625,-11.9375,-5.3125,3.1875,7.25,-1.8125,-6.4375,-3.75,2.125,4.5,-2.6875,-7.3125,-4.6875,1.0625,0.8125,-1.25,-1.8125,-0.8125,-1.1875,-3.0,-2.625,-0.8125,-4.125,-3.5,-4.9375,-2.1875,-1.125,-3.25,-3.8125,-2.5625
waveIn,3,3,0.125,-1.4375,-1.1875,-1.25,-0.375,-1.125,-1.4375,-1.1875,-0.5,1.0625,0.1875,-0.5,-0.875,-0.5,-0.5,-0.375,0.0625,-0.875,-1.625,-0.875,0.1875,-0.3125,-0.25,-1.3125,-0.8125,-0.9375,-1.75,-1.25,-1.375,1.0,1.125,-0.8125,-1.0,0.625,-0.5625,-1.25,-2.625,-1.0625,-2.3125,-3.1875,-6.5,-8.875,-13.25,-12.125,-18.5625,-18.875,-13.875,-5.5625,1.1875,-0.5,-6.0625,-3.9375,1.5,2.4375,-1.8125,1.25,4.625,7.6875,6.4375,5.8125,6.9375,7.8125,5.0,8.0,10.5625,11.5625,8.375,7.9375,10.0,10.875,8.3125,9.125,12.125,13.125,11.9375,11.375,11.1875,12.4375,14.875,16.5625,18.8125,23.3125,29.0625,32.3125,31.3125,29.125,28.375,28.625,26.5625,21.5,17.875,14.6875,12.625,11.5,10.0,8.3125,8.625,7.0,4.75,2.25,-0.375,-3.125,-5.0,-6.4375,-5.5625,-6.3125,-7.1875,-7.75,-6.75,-5.5625,-2.375,-3.375,-2.625,-1.3125,-2.0625,-1.125,0.0625,-0.875,-4.4375,-5.75,-4.0,-2.375,-1.0,-2.6875,-4.1875,-2.3125,-0.375,-1.6875,-2.9375,-5.1875,-5.6875,-6.25,-9.0625,-10.0625,-10.25,-10.0625,-10.0,-13.75,-13.375,-6.6875,1.5625,12.5,8.4375,-6.375,-10.3125,-4.0,7.5,5.625,-1.0,-1.125,-0.5625,1.3125,2.1875,3.625,1.625,-3.0,-7.0625,-5.3125,1.1875,-3.1875,-8.375,-4.6875,-0.75,-2.6875,-5.0,-7.125,-3.9375,-1.125,1.25,-2.875,-4.5625,-4.3125,-1.75,-0.5625,-2.9375,-5.1875,-4.8125,-1.1875
waveIn,3,4
